t,carotid_880nm,carotid_660nm,brachial_880nm,brachial_660nm
3.7,-162.15,-81.249,15.595,-9.2427
13.6,-162.15,-81.249,11.595,-10.243
23.5,-161.15,-80.249,11.595,-10.243
33.4,-159.15,-81.249,10.595,-10.243
43.3,-159.15,-80.249,10.595,-10.243
53.2,-157.15,-80.249,9.5954,-9.2427
63.1,-153.15,-75.249,9.5954,-9.2427
72.9,-152.15,-75.249,5.5954,-13.243
82.8,-153.15,-74.249,5.5954,-13.243
92.7,-154.15,-77.249,2.5954,-15.243
102.6,-160.15,-79.249,2.5954,-15.243
112.5,-164.15,-80.249,4.5954,-12.243
122.4,-168.15,-81.249,4.5954,-12.243
132.3,-169.15,-84.249,14.595,-6.2427
142.1,-170.15,-83.249,14.595,-6.2427
152.0,-172.15,-86.249,26.595,-0.24275
161.9,-174.15,-85.249,26.595,-0.24275
171.8,-176.15,-87.249,31.595,1.7573
181.7,-176.15,-87.249,36.595,4.7573
191.6,-175.15,-86.249,41.595,7.7573
201.5,-176.15,-86.249,41.595,7.7573
211.3,-176.15,-87.249,46.595,9.7573
221.2,-177.15,-86.249,47.595,8.7573
231.1,-177.15,-86.249,47.595,9.7573
241.0,-178.15,-87.249,47.595,9.7573
250.9,-178.15,-89.249,47.595,6.7573
260.8,-178.15,-86.249,44.595,6.7573
270.7,-177.15,-87.249,41.595,4.7573
280.5,-176.15,-87.249,39.595,3.7573
290.4,-177.15,-89.249,38.595,2.7573
300.3,-179.15,-88.249,33.595,-1.2427
310.2,-178.15,-89.249,31.595,-1.2427
320.1,-179.15,-89.249,28.595,-4.2427
330.0,-179.15,-92.249,26.595,-5.2427
339.9,-179.15,-92.249,26.595,-4.2427
349.7,-179.15,-92.249,26.595,-4.2427
359.6,-179.15,-92.249,27.595,-5.2427
369.5,-180.15,-91.249,26.595,-4.2427
379.4,-180.15,-91.249,27.595,-3.2427
389.3,-180.15,-92.249,28.595,-3.2427
399.2,-180.15,-92.249,27.595,-2.2427
409.1,-181.15,-92.249,28.595,-3.2427
418.9,-181.15,-92.249,29.595,-3.2427
428.8,-181.15,-92.249,28.595,-3.2427
438.7,-181.15,-92.249,27.595,-4.2427
448.6,-180.15,-92.249,27.595,-4.2427
458.5,-180.15,-92.249,25.595,-3.2427
468.4,-180.15,-94.249,25.595,-4.2427
478.3,-180.15,-94.249,27.595,-3.2427
488.1,-178.15,-92.249,25.595,-5.2427
498.0,-177.15,-93.249,24.595,-6.2427
507.9,-178.15,-93.249,24.595,-5.2427
517.8,-176.15,-94.249,24.595,-5.2427
527.7,-176.15,-93.249,23.595,-5.2427
537.6,-176.15,-93.249,25.595,-4.2427
547.5,-175.15,-95.249,23.595,-4.2427
557.3,-176.15,-93.249,25.595,-4.2427
567.2,-175.15,-95.249,23.595,-5.2427
577.1,-177.15,-94.249,25.595,-5.2427
587.0,-175.15,-95.249,25.595,-5.2427
596.9,-177.15,-95.249,23.595,-5.2427
606.8,-175.15,-98.249,21.595,-5.2427
616.7,-176.15,-98.249,22.595,-5.2427
626.5,-177.15,-98.249,19.595,-6.2427
636.4,-176.15,-98.249,20.595,-6.2427
646.3,-176.15,-98.249,18.595,-7.2427
656.2,-175.15,-99.249,17.595,-7.2427
666.1,-174.15,-99.249,17.595,-9.2427
676.0,-174.15,-99.249,16.595,-11.243
685.9,-173.15,-98.249,11.595,-10.243
695.7,-170.15,-96.249,12.595,-10.243
705.6,-170.15,-97.249,12.595,-11.243
715.5,-168.15,-97.249,12.595,-9.2427
725.4,-167.15,-92.249,10.595,-9.2427
735.3,-164.15,-91.249,9.5954,-9.2427
745.2,-163.15,-92.249,6.5954,-13.243
755.1,-165.15,-92.249,2.5954,-13.243
764.9,-172.15,-95.249,5.5954,-13.243
774.8,-175.15,-95.249,0.59544,-14.243
784.7,-180.15,-99.249,-0.40456,-15.243
794.6,-187.15,-99.249,0.59544,-13.243
804.5,-189.15,-102.25,4.5954,-11.243
814.4,-193.15,-103.25,11.595,-7.2427
824.3,-195.15,-102.25,16.595,-5.2427
834.1,-197.15,-102.25,22.595,-3.2427
844.0,-198.15,-102.25,25.595,-1.2427
853.9,-198.15,-101.25,25.595,-1.2427
863.8,-198.15,-101.25,25.595,-1.2427
873.7,-199.15,-98.249,27.595,-0.24275
883.6,-200.15,-98.249,28.595,-0.24275
893.5,-202.15,-97.249,30.595,-0.24275
903.3,-203.15,-96.249,27.595,-1.2427
913.2,-202.15,-95.249,29.595,-1.2427
923.1,-203.15,-94.249,29.595,-0.24275
933.0,-203.15,-92.249,28.595,-3.2427
942.9,-204.15,-90.249,23.595,-4.2427
952.8,-202.15,-90.249,22.595,-4.2427
962.7,-203.15,-87.249,21.595,-6.2427
972.5,-203.15,-87.249,18.595,-7.2427
982.4,-203.15,-84.249,14.595,-9.2427
992.3,-199.15,-82.249,14.595,-9.2427
1002.2,-201.15,-81.249,14.595,-10.243
1012.1,-197.15,-79.249,17.595,-8.2427
1022.0,-193.15,-75.249,17.595,-8.2427
1031.9,-192.15,-74.249,15.595,-9.2427
1041.7,-189.15,-70.249,16.595,-8.2427
1051.6,-189.15,-70.249,16.595,-8.2427
1061.5,-181.15,-66.249,18.595,-8.2427
1071.4,-181.15,-66.249,18.595,-8.2427
1081.3,-175.15,-62.249,17.595,-8.2427
1091.2,-175.15,-62.249,17.595,-8.2427
1101.1,-170.15,-59.249,19.595,-7.2427
1110.9,-170.15,-59.249,19.595,-7.2427
1120.8,-167.15,-58.249,18.595,-6.2427
1130.7,-167.15,-58.249,18.595,-6.2427
1140.6,-162.15,-57.249,17.595,-7.2427
1150.5,-162.15,-57.249,17.595,-7.2427
1160.4,-157.15,-55.249,15.595,-9.2427
1170.3,-157.15,-55.249,15.595,-9.2427
1180.1,-152.15,-54.249,12.595,-10.243
1190.0,-152.15,-54.249,12.595,-10.243
1199.9,-152.15,-53.249,11.595,-11.243
1209.8,-151.15,-51.249,11.595,-11.243
1219.7,-150.15,-52.249,6.5954,-14.243
1229.6,-146.15,-52.249,6.5954,-14.243
1239.5,-144.15,-53.249,2.5954,-15.243
1249.3,-145.15,-52.249,2.5954,-15.243
1259.2,-144.15,-52.249,-0.40456,-18.243
1269.1,-143.15,-52.249,-1.4046,-18.243
1279.0,-142.15,-52.249,-3.4046,-19.243
1288.9,-142.15,-52.249,-6.4046,-20.243
1298.8,-141.15,-52.249,-4.4046,-20.243
1308.7,-137.15,-52.249,-5.4046,-19.243
1318.5,-138.15,-52.249,-7.4046,-21.243
1328.4,-139.15,-52.249,-10.405,-23.243
1338.3,-137.15,-52.249,-9.4046,-22.243
1348.2,-138.15,-52.249,-11.405,-23.243
1358.1,-136.15,-52.249,-11.405,-23.243
1368.0,-135.15,-50.249,-13.405,-23.243
1377.9,-132.15,-49.249,-16.405,-24.243
1387.7,-131.15,-49.249,-12.405,-22.243
1397.6,-128.15,-49.249,-16.405,-22.243
1407.5,-130.15,-47.249,-16.405,-23.243
1417.4,-127.15,-46.249,-19.405,-23.243
1427.3,-124.15,-44.249,-19.405,-25.243
1437.2,-124.15,-44.249,-22.405,-26.243
1447.1,-126.15,-44.249,-26.405,-27.243
1456.9,-127.15,-46.249,-26.405,-28.243
1466.8,-132.15,-48.249,-26.405,-28.243
1476.7,-135.15,-47.249,-29.405,-27.243
1486.6,-136.15,-47.249,-25.405,-26.243
1496.5,-138.15,-48.249,-22.405,-25.243
1506.4,-140.15,-47.249,-19.405,-23.243
1516.3,-140.15,-47.249,-15.405,-21.243
1526.1,-142.15,-48.249,-11.405,-18.243
1536.0,-144.15,-48.249,-7.4046,-17.243
1545.9,-143.15,-48.249,-2.4046,-14.243
1555.8,-143.15,-48.249,1.5954,-13.243
1565.7,-144.15,-47.249,3.5954,-12.243
1575.6,-142.15,-46.249,3.5954,-12.243
1585.5,-144.15,-47.249,4.5954,-11.243
1595.3,-142.15,-44.249,6.5954,-12.243
1605.2,-142.15,-45.249,4.5954,-13.243
1615.1,-139.15,-43.249,3.5954,-13.243
1625.0,-138.15,-42.249,0.59544,-16.243
1634.9,-138.15,-42.249,-2.4046,-16.243
1644.8,-137.15,-40.249,-3.4046,-18.243
1654.7,-137.15,-40.249,-7.4046,-19.243
1664.5,-137.15,-40.249,-10.405,-22.243
1674.4,-138.15,-39.249,-12.405,-23.243
1684.3,-141.15,-39.249,-14.405,-23.243
1694.2,-137.15,-39.249,-15.405,-22.243
1704.1,-138.15,-38.249,-15.405,-24.243
1714.0,-138.15,-38.249,-15.405,-24.243
1723.9,-138.15,-38.249,-13.405,-23.243
1733.7,-139.15,-38.249,-11.405,-21.243
1743.6,-137.15,-36.249,-8.4046,-20.243
1753.5,-136.15,-37.249,-8.4046,-20.243
1763.4,-136.15,-35.249,-5.4046,-19.243
1773.3,-137.15,-35.249,-8.4046,-21.243
1783.2,-137.15,-35.249,-7.4046,-19.243
1793.1,-134.15,-33.249,-8.4046,-20.243
1802.9,-134.15,-33.249,-7.4046,-19.243
1812.8,-132.15,-30.249,-7.4046,-20.243
1822.7,-132.15,-30.249,-9.4046,-21.243
1832.6,-130.15,-28.249,-10.405,-20.243
1842.5,-130.15,-28.249,-11.405,-22.243
1852.4,-127.15,-26.249,-14.405,-23.243
1862.3,-127.15,-26.249,-16.405,-23.243
1872.1,-125.15,-24.249,-16.405,-24.243
1882.0,-125.15,-24.249,-18.405,-25.243
1891.9,-122.15,-22.249,-21.405,-25.243
1901.8,-122.15,-22.249,-22.405,-27.243
1911.7,-119.15,-21.249,-24.405,-27.243
1921.6,-119.15,-21.249,-26.405,-29.243
1931.5,-118.15,-20.249,-27.405,-29.243
1941.3,-116.15,-19.249,-26.405,-28.243
1951.2,-113.15,-18.249,-26.405,-28.243
1961.1,-113.15,-17.249,-29.405,-29.243
1971.0,-112.15,-16.249,-29.405,-29.243
1980.9,-110.15,-16.249,-31.405,-31.243
1990.8,-108.15,-16.249,-30.405,-30.243
2000.7,-106.15,-15.249,-33.405,-30.243
2010.5,-104.15,-14.249,-34.405,-32.243
2020.4,-102.15,-11.249,-35.405,-31.243
2030.3,-100.15,-11.249,-33.405,-32.243
2040.2,-97.154,-10.249,-34.405,-30.243
2050.1,-96.154,-7.2491,-36.405,-32.243
2060.0,-96.154,-7.2491,-36.405,-32.243
2069.8,-92.154,-5.2491,-39.405,-32.243
2079.7,-90.154,-4.2491,-40.405,-34.243
2089.6,-89.154,-2.2491,-44.405,-33.243
2099.5,-90.154,-4.2491,-40.405,-33.243
2109.4,-94.154,-5.2491,-42.405,-34.243
2119.3,-98.154,-7.2491,-40.405,-33.243
2129.2,-101.15,-7.2491,-39.405,-32.243
2139.1,-103.15,-8.2491,-39.405,-32.243
2148.9,-104.15,-9.2491,-30.405,-28.243
2158.8,-106.15,-9.2491,-30.405,-28.243
2168.7,-109.15,-9.2491,-20.405,-22.243
2178.6,-106.15,-8.2491,-20.405,-22.243
2188.5,-108.15,-9.2491,-12.405,-18.243
2198.4,-109.15,-9.2491,-12.405,-18.243
2208.2,-109.15,-9.2491,-6.4046,-15.243
2218.1,-110.15,-9.2491,-6.4046,-15.243
2228.0,-109.15,-9.2491,-4.4046,-15.243
2237.9,-108.15,-8.2491,-4.4046,-15.243
2247.8,-108.15,-8.2491,-1.4046,-13.243
2257.7,-107.15,-7.2491,-1.4046,-13.243
2267.6,-104.15,-6.2491,-1.4046,-14.243
2277.4,-102.15,-5.2491,-1.4046,-14.243
2287.3,-102.15,-6.2491,-2.4046,-15.243
2297.2,-101.15,-5.2491,-2.4046,-15.243
2307.1,-101.15,-5.2491,-6.4046,-16.243
2317.0,-102.15,-6.2491,-6.4046,-16.243
2326.9,-101.15,-5.2491,-12.405,-20.243
2336.8,-103.15,-5.2491,-12.405,-20.243
2346.6,-103.15,-6.2491,-13.405,-21.243
2356.5,-103.15,-6.2491,-13.405,-21.243
2366.4,-101.15,-5.2491,-15.405,-22.243
2376.3,-104.15,-6.2491,-15.405,-22.243
2386.2,-100.15,-5.2491,-14.405,-21.243
2396.1,-101.15,-5.2491,-14.405,-21.243
2406.0,-100.15,-3.2491,-14.405,-21.243
2415.8,-98.154,-4.2491,-14.405,-22.243
2425.7,-99.154,-4.2491,-15.405,-21.243
2435.6,-98.154,-4.2491,-15.405,-21.243
2445.5,-99.154,-4.2491,-13.405,-21.243
2455.4,-96.154,-4.2491,-14.405,-21.243
2465.3,-95.154,-3.2491,-13.405,-21.243
2475.2,-95.154,-3.2491,-15.405,-21.243
2485.0,-93.154,-0.24908,-16.405,-20.243
2494.9,-93.154,-0.24908,-14.405,-23.243
2504.8,-93.154,-0.24908,-17.405,-21.243
2514.7,-93.154,-0.24908,-17.405,-22.243
2524.6,-91.154,-0.24908,-17.405,-22.243
2534.5,-91.154,-0.24908,-18.405,-22.243
2544.4,-90.154,0.75092,-17.405,-22.243
2554.2,-90.154,0.75092,-18.405,-22.243
2564.1,-87.154,2.7509,-18.405,-22.243
2574.0,-87.154,2.7509,-20.405,-22.243
2583.9,-84.154,3.7509,-18.405,-22.243
2593.8,-84.154,3.7509,-20.405,-22.243
2603.7,-81.154,4.7509,-21.405,-24.243
2613.6,-81.154,4.7509,-23.405,-24.243
2623.4,-77.154,6.7509,-24.405,-24.243
2633.3,-77.154,6.7509,-27.405,-25.243
2643.2,-75.154,8.7509,-27.405,-25.243
2653.1,-72.154,8.7509,-25.405,-25.243
2663.0,-73.154,8.7509,-27.405,-25.243
2672.9,-69.154,9.7509,-29.405,-25.243
2682.8,-67.154,13.751,-28.405,-25.243
2692.6,-64.154,14.751,-30.405,-24.243
2702.5,-62.154,14.751,-30.405,-26.243
2712.4,-64.154,15.751,-28.405,-26.243
2722.3,-66.154,14.751,-29.405,-25.243
2732.2,-71.154,13.751,-29.405,-24.243
2742.1,-74.154,11.751,-29.405,-23.243
2752.0,-77.154,11.751,-28.405,-22.243
2761.8,-79.154,10.751,-21.405,-20.243
2771.7,-80.154,11.751,-18.405,-17.243
2781.6,-84.154,9.7509,-12.405,-16.243
2791.5,-86.154,8.7509,-6.4046,-13.243
2801.4,-87.154,9.7509,-4.4046,-11.243
2811.3,-86.154,8.7509,1.5954,-8.2427
2821.2,-85.154,10.751,2.5954,-6.2427
2831.0,-85.154,10.751,5.5954,-5.2427
2840.9,-84.154,11.751,9.5954,-4.2427
2850.8,-87.154,11.751,8.5954,-5.2427
2860.7,-85.154,11.751,9.5954,-5.2427
2870.6,-83.154,13.751,10.595,-4.2427
2880.5,-84.154,12.751,9.5954,-5.2427
2890.4,-82.154,13.751,10.595,-4.2427
2900.2,-81.154,14.751,10.595,-5.2427
2910.1,-80.154,14.751,9.5954,-4.2427
2920.0,-79.154,14.751,12.595,-4.2427
2929.9,-79.154,14.751,11.595,-4.2427
2939.8,-79.154,14.751,10.595,-6.2427
2949.7,-79.154,14.751,7.5954,-4.2427
2959.6,-79.154,15.751,9.5954,-5.2427
2969.4,-78.154,15.751,8.5954,-5.2427
2979.3,-78.154,13.751,11.595,-2.2427
2989.2,-81.154,13.751,16.595,-1.2427
2999.1,-78.154,13.751,17.595,-1.2427
3009.0,-79.154,14.751,20.595,0.75725
3018.9,-78.154,14.751,20.595,0.75725
3028.8,-77.154,14.751,19.595,2.7573
3038.6,-76.154,14.751,20.595,2.7573
3048.5,-74.154,15.751,21.595,1.7573
3058.4,-73.154,15.751,22.595,0.75725
3068.3,-74.154,17.751,23.595,3.7573
3078.2,-72.154,17.751,25.595,4.7573
3088.1,-72.154,15.751,26.595,5.7573
3098.0,-71.154,17.751,27.595,4.7573
3107.8,-70.154,18.751,23.595,3.7573
3117.7,-70.154,18.751,23.595,3.7573
3127.6,-70.154,18.751,23.595,3.7573
3137.5,-69.154,17.751,20.595,1.7573
3147.4,-69.154,19.751,20.595,1.7573
3157.3,-69.154,19.751,15.595,-0.24275
3167.2,-70.154,17.751,14.595,-2.2427
3177.0,-69.154,19.751,11.595,-3.2427
3186.9,-67.154,18.751,8.5954,-4.2427
3196.8,-65.154,21.751,6.5954,-5.2427
3206.7,-63.154,22.751,6.5954,-5.2427
3216.6,-62.154,23.751,4.5954,-7.2427
3226.5,-62.154,23.751,4.5954,-7.2427
3236.4,-59.154,24.751,1.5954,-7.2427
3246.2,-59.154,24.751,1.5954,-7.2427
3256.1,-55.154,28.751,0.59544,-7.2427
3266.0,-55.154,28.751,0.59544,-7.2427
3275.9,-52.154,28.751,-0.40456,-8.2427
3285.8,-52.154,28.751,-0.40456,-8.2427
3295.7,-56.154,28.751,-6.4046,-10.243
3305.6,-56.154,28.751,-6.4046,-10.243
3315.4,-62.154,25.751,-5.4046,-9.2427
3325.3,-62.154,25.751,-5.4046,-9.2427
3335.2,-65.154,25.751,0.59544,-5.2427
3345.1,-65.154,25.751,0.59544,-5.2427
3355.0,-68.154,24.751,10.595,-0.24275
3364.9,-68.154,24.751,10.595,-0.24275
3374.8,-69.154,25.751,18.595,1.7573
3384.6,-70.154,25.751,18.595,1.7573
3394.5,-68.154,25.751,24.595,4.7573
3404.4,-68.154,26.751,24.595,4.7573
3414.3,-68.154,26.751,26.595,5.7573
3424.2,-67.154,26.751,26.595,5.7573
3434.1,-67.154,25.751,30.595,7.7573
3444.0,-65.154,26.751,33.595,6.7573
3453.8,-64.154,25.751,32.595,6.7573
3463.7,-66.154,27.751,30.595,5.7573
3473.6,-64.154,27.751,30.595,6.7573
3483.5,-60.154,26.751,29.595,3.7573
3493.4,-59.154,28.751,27.595,4.7573
3503.3,-60.154,26.751,23.595,1.7573
3513.2,-61.154,25.751,22.595,0.75725
3523.0,-63.154,24.751,20.595,-1.2427
3532.9,-60.154,24.751,19.595,-1.2427
3542.8,-60.154,24.751,17.595,-2.2427
3552.7,-60.154,23.751,17.595,-2.2427
3562.6,-62.154,22.751,19.595,-0.24275
3572.5,-60.154,21.751,18.595,-1.2427
3582.4,-62.154,20.751,20.595,-0.24275
3592.2,-61.154,19.751,21.595,0.75725
3602.1,-61.154,18.751,23.595,1.7573
3612.0,-61.154,18.751,24.595,1.7573
3621.9,-63.154,18.751,22.595,1.7573
3631.8,-61.154,18.751,22.595,2.7573
3641.7,-58.154,17.751,24.595,2.7573
3651.6,-59.154,15.751,22.595,2.7573
3661.4,-58.154,17.751,23.595,2.7573
3671.3,-59.154,17.751,22.595,1.7573
3681.2,-57.154,16.751,24.595,2.7573
3691.1,-58.154,15.751,24.595,1.7573
3701.0,-58.154,14.751,25.595,3.7573
3710.9,-57.154,14.751,24.595,2.7573
3720.8,-57.154,14.751,24.595,3.7573
3730.6,-56.154,14.751,22.595,1.7573
3740.5,-55.154,15.751,21.595,1.7573
3750.4,-53.154,15.751,22.595,1.7573
3760.3,-54.154,16.751,21.595,1.7573
3770.2,-53.154,15.751,22.595,0.75725
3780.1,-51.154,15.751,21.595,0.75725
3790.0,-49.154,15.751,20.595,1.7573
3799.8,-47.154,18.751,19.595,1.7573
3809.7,-46.154,19.751,20.595,1.7573
3819.6,-43.154,21.751,19.595,1.7573
3829.5,-43.154,21.751,16.595,-0.24275
3839.4,-44.154,20.751,13.595,-2.2427
3849.3,-46.154,20.751,12.595,-4.2427
3859.2,-51.154,17.751,11.595,-4.2427
3869.0,-55.154,17.751,11.595,-2.2427
3878.9,-58.154,16.751,14.595,0.75725
3888.8,-62.154,14.751,16.595,1.7573
3898.7,-63.154,13.751,22.595,4.7573
3908.6,-66.154,11.751,30.595,8.7573
3918.5,-66.154,11.751,35.595,9.7573
3928.4,-66.154,13.751,39.595,12.757
3938.2,-66.154,10.751,43.595,13.757
3948.1,-66.154,11.751,47.595,16.757
3958.0,-66.154,11.751,50.595,17.757
3967.9,-68.154,10.751,53.595,18.757
3977.8,-68.154,10.751,54.595,17.757
3987.7,-70.154,10.751,55.595,18.757
3997.6,-70.154,10.751,57.595,19.757
4007.4,-70.154,9.7509,59.595,20.757
4017.3,-70.154,9.7509,57.595,19.757
4027.2,-68.154,9.7509,55.595,17.757
4037.1,-68.154,9.7509,56.595,16.757
4047.0,-67.154,9.7509,53.595,16.757
4056.9,-67.154,9.7509,53.595,16.757
4066.8,-68.154,7.7509,51.595,14.757
4076.6,-68.154,7.7509,49.595,14.757
4086.5,-69.154,8.7509,48.595,13.757
4096.4,-69.154,7.7509,49.595,12.757
4106.3,-68.154,8.7509,47.595,12.757
4116.2,-68.154,8.7509,47.595,13.757
4126.1,-70.154,6.7509,47.595,13.757
4136.0,-70.154,5.7509,48.595,13.757
4145.8,-70.154,7.7509,47.595,12.757
4155.7,-71.154,5.7509,47.595,12.757
4165.6,-71.154,5.7509,46.595,10.757
4175.5,-70.154,5.7509,45.595,11.757
4185.4,-70.154,6.7509,45.595,12.757
4195.3,-68.154,6.7509,46.595,12.757
4205.2,-68.154,5.7509,45.595,11.757
4215.0,-66.154,7.7509,43.595,10.757
4224.9,-65.154,6.7509,43.595,9.7573
4234.8,-65.154,7.7509,39.595,9.7573
4244.7,-64.154,7.7509,41.595,9.7573
4254.6,-61.154,7.7509,43.595,9.7573
4264.5,-62.154,8.7509,45.595,10.757
4274.4,-61.154,9.7509,41.595,11.757
4284.2,-60.154,8.7509,44.595,11.757
4294.1,-59.154,8.7509,44.595,11.757
4304.0,-57.154,9.7509,42.595,10.757
4313.9,-55.154,10.751,42.595,10.757
4323.8,-56.154,8.7509,44.595,14.757
4333.7,-53.154,10.751,44.595,14.757
4343.6,-52.154,10.751,43.595,13.757
4353.4,-51.154,11.751,43.595,13.757
4363.3,-50.154,11.751,43.595,12.757
4373.2,-48.154,11.751,43.595,12.757
4383.1,-47.154,14.751,42.595,11.757
4393.0,-48.154,14.751,42.595,11.757
4402.9,-46.154,15.751,38.595,11.757
4412.8,-49.154,13.751,38.595,11.757
4422.6,-52.154,12.751,39.595,11.757
4432.5,-59.154,8.7509,39.595,11.757
4442.4,-62.154,7.7509,44.595,13.757
4452.3,-65.154,6.7509,44.595,13.757
4462.2,-67.154,5.7509,54.595,19.757
4472.1,-69.154,5.7509,54.595,19.757
4482.0,-68.154,5.7509,61.595,23.757
4491.8,-71.154,4.7509,61.595,23.757
4501.7,-72.154,4.7509,66.595,25.757
4511.6,-72.154,1.7509,66.595,25.757
4521.5,-72.154,2.7509,70.595,26.757
4531.4,-75.154,2.7509,70.595,25.757
4541.3,-74.154,2.7509,71.595,25.757
4551.2,-74.154,1.7509,71.595,25.757
4561.0,-74.154,2.7509,72.595,24.757
4570.9,-74.154,-0.24908,70.595,24.757
4580.8,-73.154,2.7509,69.595,23.757
4590.7,-73.154,0.75092,67.595,21.757
4600.6,-72.154,2.7509,67.595,21.757
4610.5,-72.154,0.75092,67.595,21.757
4620.3,-71.154,1.7509,65.595,22.757
4630.2,-72.154,0.75092,66.595,19.757
4640.1,-72.154,1.7509,64.595,21.757
4650.0,-74.154,-0.24908,66.595,20.757
4659.9,-73.154,-1.2491,66.595,19.757
4669.8,-73.154,-1.2491,67.595,21.757
4679.7,-75.154,-2.2491,68.595,22.757
4689.6,-75.154,-2.2491,69.595,22.757
4699.4,-74.154,-4.2491,70.595,23.757
4709.3,-74.154,-4.2491,71.595,23.757
4719.2,-75.154,-3.2491,70.595,23.757
4729.1,-75.154,-3.2491,71.595,23.757
4739.0,-75.154,-5.2491,69.595,23.757
4748.9,-75.154,-5.2491,70.595,23.757
4758.7,-75.154,-5.2491,69.595,23.757
4768.6,-75.154,-5.2491,69.595,23.757
4778.5,-76.154,-6.2491,68.595,23.757
4788.4,-76.154,-6.2491,69.595,22.757
4798.3,-76.154,-8.2491,67.595,20.757
4808.2,-76.154,-8.2491,66.595,22.757
4818.1,-77.154,-8.2491,64.595,21.757
4828.0,-77.154,-8.2491,63.595,18.757
4837.8,-76.154,-9.2491,60.595,18.757
4847.7,-76.154,-8.2491,60.595,19.757
4857.6,-74.154,-9.2491,60.595,17.757
4867.5,-75.154,-11.249,58.595,17.757
4877.4,-73.154,-9.2491,56.595,15.757
4887.3,-73.154,-11.249,56.595,15.757
4897.1,-73.154,-11.249,54.595,15.757
4907.0,-73.154,-11.249,53.595,15.757
4916.9,-71.154,-10.249,54.595,15.757
4926.8,-71.154,-11.249,51.595,15.757
4936.7,-70.154,-10.249,52.595,15.757
4946.6,-67.154,-9.2491,54.595,16.757
4956.5,-68.154,-11.249,52.595,15.757
4966.3,-69.154,-10.249,52.595,17.757
4976.2,-65.154,-7.2491,53.595,17.757
4986.1,-66.154,-9.2491,49.595,14.757
4996.0,-67.154,-11.249,45.595,12.757
5005.9,-69.154,-10.249,43.595,13.757
5015.8,-73.154,-12.249,44.595,11.757
5025.7,-79.154,-14.249,44.595,12.757
5035.5,-81.154,-14.249,47.595,13.757
5045.4,-83.154,-16.249,54.595,16.757
5055.3,-86.154,-17.249,60.595,19.757
5065.2,-88.154,-18.249,65.595,21.757
5075.1,-87.154,-18.249,67.595,22.757
5085.0,-89.154,-18.249,71.595,24.757
5094.9,-90.154,-19.249,73.595,25.757
5104.7,-89.154,-18.249,77.595,27.757
5114.6,-90.154,-18.249,79.595,26.757
5124.5,-90.154,-17.249,80.595,27.757
5134.4,-89.154,-18.249,82.595,29.757
5144.3,-88.154,-18.249,81.595,28.757
5154.2,-89.154,-18.249,82.595,27.757
5164.1,-89.154,-18.249,81.595,28.757
5173.9,-89.154,-19.249,80.595,26.757
5183.8,-90.154,-19.249,74.595,24.757
5193.7,-89.154,-18.249,74.595,22.757
5203.6,-90.154,-20.249,70.595,20.757
5213.5,-90.154,-20.249,71.595,20.757
5223.4,-90.154,-20.249,65.595,19.757
5233.3,-91.154,-19.249,64.595,16.757
5243.1,-92.154,-20.249,61.595,15.757
5253.0,-90.154,-21.249,60.595,14.757
5262.9,-92.154,-22.249,57.595,13.757
5272.8,-91.154,-21.249,55.595,13.757
5282.7,-92.154,-22.249,54.595,13.757
5292.6,-91.154,-21.249,53.595,12.757
5302.5,-91.154,-21.249,53.595,13.757
5312.3,-93.154,-22.249,51.595,12.757
5322.2,-91.154,-21.249,48.595,10.757
5332.1,-90.154,-21.249,49.595,11.757
5342.0,-89.154,-21.249,48.595,11.757
5351.9,-89.154,-21.249,44.595,9.7573
5361.8,-89.154,-23.249,41.595,6.7573
5371.7,-89.154,-22.249,41.595,7.7573
5381.5,-86.154,-20.249,39.595,6.7573
5391.4,-86.154,-21.249,35.595,5.7573
5401.3,-86.154,-21.249,35.595,5.7573
5411.2,-85.154,-20.249,28.595,2.7573
5421.1,-85.154,-20.249,28.595,2.7573
5431.0,-84.154,-20.249,23.595,-1.2427
5440.9,-84.154,-20.249,23.595,-1.2427
5450.7,-81.154,-20.249,20.595,-2.2427
5460.6,-81.154,-20.249,20.595,-2.2427
5470.5,-80.154,-19.249,19.595,-2.2427
5480.4,-80.154,-19.249,19.595,-2.2427
5490.3,-79.154,-17.249,15.595,-3.2427
5500.2,-79.154,-17.249,15.595,-3.2427
5510.1,-74.154,-16.249,13.595,-2.2427
5519.9,-74.154,-16.249,13.595,-2.2427
5529.8,-74.154,-16.249,6.5954,-6.2427
5539.7,-74.154,-16.249,6.5954,-6.2427
5549.6,-72.154,-15.249,5.5954,-7.2427
5559.5,-72.154,-13.249,5.5954,-7.2427
5569.4,-70.154,-14.249,3.5954,-7.2427
5579.3,-70.154,-14.249,3.5954,-7.2427
5589.1,-68.154,-15.249,3.5954,-8.2427
5599.0,-69.154,-13.249,3.5954,-8.2427
5608.9,-68.154,-14.249,1.5954,-7.2427
5618.8,-68.154,-13.249,-0.40456,-7.2427
5628.7,-66.154,-13.249,1.5954,-7.2427
5638.6,-64.154,-13.249,-0.40456,-9.2427
5648.5,-63.154,-13.249,-1.4046,-8.2427
5658.3,-61.154,-11.249,-2.4046,-11.243
5668.2,-58.154,-12.249,-4.4046,-10.243
5678.1,-58.154,-10.249,-5.4046,-8.2427
5688.0,-56.154,-10.249,-2.4046,-9.2427
5697.9,-53.154,-7.2491,-2.4046,-9.2427
5707.8,-50.154,-4.2491,-3.4046,-9.2427
5717.7,-52.154,-4.2491,-3.4046,-11.243
5727.5,-53.154,-6.2491,-6.4046,-12.243
5737.4,-55.154,-7.2491,-8.4046,-13.243
5747.3,-60.154,-8.2491,-10.405,-12.243
5757.2,-63.154,-10.249,-5.4046,-11.243
5767.1,-65.154,-10.249,-0.40456,-7.2427
5777.0,-66.154,-10.249,5.5954,-4.2427
5786.9,-69.154,-11.249,11.595,-1.2427
5796.7,-69.154,-11.249,16.595,1.7573
5806.6,-72.154,-11.249,20.595,3.7573
5816.5,-71.154,-11.249,27.595,5.7573
5826.4,-70.154,-10.249,30.595,7.7573
5836.3,-72.154,-10.249,35.595,8.7573
5846.2,-71.154,-11.249,35.595,8.7573
5856.1,-71.154,-9.2491,39.595,10.757
5865.9,-71.154,-9.2491,42.595,9.7573
5875.8,-71.154,-10.249,42.595,10.757
5885.7,-69.154,-10.249,42.595,10.757
5895.6,-69.154,-10.249,40.595,9.7573
5905.5,-68.154,-9.2491,37.595,7.7573
5915.4,-69.154,-9.2491,34.595,4.7573
5925.3,-68.154,-9.2491,30.595,3.7573
5935.1,-68.154,-9.2491,27.595,3.7573
5945.0,-69.154,-10.249,27.595,0.75725
5954.9,-70.154,-11.249,24.595,-0.24275
5964.8,-66.154,-10.249,21.595,-0.24275
5974.7,-69.154,-11.249,20.595,-2.2427
5984.6,-69.154,-10.249,21.595,-2.2427
5994.5,-69.154,-11.249,19.595,-2.2427
6004.3,-69.154,-12.249,20.595,-1.2427
6014.2,-69.154,-12.249,18.595,-1.2427
6024.1,-68.154,-10.249,19.595,-2.2427
6034.0,-70.154,-11.249,18.595,-1.2427
6043.9,-67.154,-10.249,19.595,-2.2427
6053.8,-68.154,-12.249,19.595,-0.24275
6063.7,-68.154,-12.249,19.595,-1.2427
6073.5,-66.154,-10.249,17.595,-3.2427
6083.4,-66.154,-10.249,19.595,-3.2427
6093.3,-67.154,-12.249,16.595,-4.2427
6103.2,-67.154,-11.249,15.595,-4.2427
6113.1,-67.154,-11.249,14.595,-3.2427
6123.0,-63.154,-10.249,14.595,-3.2427
6132.9,-63.154,-10.249,14.595,-6.2427
6142.7,-65.154,-10.249,12.595,-5.2427
6152.6,-65.154,-10.249,10.595,-7.2427
6162.5,-63.154,-9.2491,10.595,-6.2427
6172.4,-63.154,-9.2491,8.5954,-8.2427
6182.3,-62.154,-9.2491,7.5954,-7.2427
6192.2,-62.154,-9.2491,6.5954,-8.2427
6202.1,-59.154,-10.249,4.5954,-9.2427
6211.9,-59.154,-10.249,4.5954,-8.2427
6221.8,-60.154,-10.249,4.5954,-9.2427
6231.7,-60.154,-10.249,4.5954,-8.2427
6241.6,-59.154,-10.249,3.5954,-9.2427
6251.5,-59.154,-10.249,4.5954,-9.2427
6261.4,-59.154,-8.2491,2.5954,-9.2427
6271.3,-60.154,-9.2491,1.5954,-9.2427
6281.1,-58.154,-10.249,0.59544,-10.243
6291.0,-57.154,-8.2491,0.59544,-9.2427
6300.9,-53.154,-9.2491,-0.40456,-11.243
6310.8,-55.154,-6.2491,0.59544,-8.2427
6320.7,-54.154,-6.2491,-1.4046,-9.2427
6330.6,-54.154,-8.2491,-1.4046,-11.243
6340.5,-51.154,-7.2491,-0.40456,-11.243
6350.3,-49.154,-8.2491,-2.4046,-10.243
6360.2,-48.154,-7.2491,-3.4046,-10.243
6370.1,-49.154,-7.2491,-4.4046,-11.243
6380.0,-48.154,-7.2491,-7.4046,-13.243
6389.9,-48.154,-7.2491,-6.4046,-11.243
6399.8,-46.154,-7.2491,-7.4046,-12.243
6409.7,-45.154,-8.2491,-7.4046,-12.243
6419.5,-44.154,-6.2491,-8.4046,-13.243
6429.4,-45.154,-5.2491,-9.4046,-14.243
6439.3,-43.154,-5.2491,-9.4046,-15.243
6449.2,-41.154,-4.2491,-9.4046,-13.243
6459.1,-39.154,-4.2491,-11.405,-14.243
6469.0,-37.154,-3.2491,-11.405,-15.243
6478.9,-34.154,-0.24908,-12.405,-17.243
6488.7,-33.154,-1.2491,-12.405,-17.243
6498.6,-34.154,-1.2491,-11.405,-14.243
6508.5,-37.154,-2.2491,-11.405,-14.243
6518.4,-41.154,-4.2491,-11.405,-15.243
6528.3,-45.154,-5.2491,-11.405,-15.243
6538.2,-48.154,-7.2491,-7.4046,-11.243
6548.1,-49.154,-7.2491,-7.4046,-11.243
6557.9,-50.154,-7.2491,2.5954,-7.2427
6567.8,-53.154,-7.2491,2.5954,-7.2427
6577.7,-53.154,-9.2491,12.595,-1.2427
6587.6,-54.154,-8.2491,12.595,-1.2427
6597.5,-55.154,-8.2491,21.595,2.7573
6607.4,-57.154,-8.2491,21.595,2.7573
6617.3,-56.154,-9.2491,26.595,4.7573
6627.1,-57.154,-9.2491,26.595,4.7573
6637.0,-57.154,-9.2491,27.595,4.7573
6646.9,-55.154,-9.2491,27.595,4.7573
6656.8,-57.154,-8.2491,25.595,3.7573
6666.7,-57.154,-9.2491,25.595,3.7573
6676.6,-56.154,-8.2491,21.595,-0.24275
6686.5,-55.154,-8.2491,21.595,-0.24275
6696.3,-54.154,-6.2491,18.595,-1.2427
6706.2,-54.154,-7.2491,18.595,-1.2427
6716.1,-56.154,-8.2491,9.5954,-7.2427
6726.0,-57.154,-9.2491,9.5954,-7.2427
6735.9,-57.154,-8.2491,8.5954,-8.2427
6745.8,-58.154,-8.2491,5.5954,-11.243
6755.7,-58.154,-8.2491,4.5954,-10.243
6765.5,-58.154,-8.2491,4.5954,-10.243
6775.4,-59.154,-9.2491,3.5954,-9.2427
6785.3,-61.154,-9.2491,4.5954,-9.2427
6795.2,-60.154,-9.2491,5.5954,-8.2427
6805.1,-61.154,-8.2491,5.5954,-8.2427
6815.0,-60.154,-8.2491,4.5954,-6.2427
6824.9,-58.154,-8.2491,7.5954,-8.2427
6834.7,-58.154,-8.2491,8.5954,-7.2427
6844.6,-58.154,-8.2491,8.5954,-6.2427
6854.5,-59.154,-7.2491,9.5954,-6.2427
6864.4,-59.154,-7.2491,7.5954,-5.2427
6874.3,-55.154,-7.2491,6.5954,-7.2427
6884.2,-55.154,-7.2491,6.5954,-8.2427
6894.1,-54.154,-6.2491,4.5954,-8.2427
6903.9,-54.154,-6.2491,3.5954,-8.2427
6913.8,-51.154,-6.2491,0.59544,-10.243
6923.7,-51.154,-6.2491,0.59544,-10.243
6933.6,-51.154,-6.2491,-3.4046,-11.243
6943.5,-51.154,-6.2491,-2.4046,-11.243
6953.4,-49.154,-6.2491,-6.4046,-12.243
6963.3,-49.154,-6.2491,-5.4046,-13.243
6973.1,-48.154,-5.2491,-6.4046,-13.243
6983.0,-46.154,-5.2491,-7.4046,-14.243
6992.9,-45.154,-6.2491,-9.4046,-16.243
7002.8,-45.154,-4.2491,-9.4046,-14.243
7012.7,-42.154,-5.2491,-11.405,-15.243
7022.6,-42.154,-4.2491,-10.405,-16.243
7032.5,-42.154,-5.2491,-11.405,-15.243
7042.3,-39.154,-4.2491,-12.405,-16.243
7052.2,-41.154,-3.2491,-13.405,-16.243
7062.1,-41.154,-4.2491,-14.405,-17.243
7072.0,-37.154,-5.2491,-15.405,-18.243
7081.9,-37.154,-6.2491,-15.405,-17.243
7091.8,-35.154,-3.2491,-13.405,-17.243
7101.7,-34.154,-5.2491,-14.405,-18.243
7111.5,-34.154,-5.2491,-16.405,-17.243
7121.4,-35.154,-5.2491,-15.405,-17.243
7131.3,-33.154,-4.2491,-16.405,-17.243
7141.2,-31.154,-4.2491,-17.405,-17.243
7151.1,-30.154,-2.2491,-19.405,-20.243
7161.0,-29.154,-3.2491,-21.405,-20.243
7170.8,-27.154,-2.2491,-23.405,-20.243
7180.7,-26.154,-1.2491,-21.405,-20.243
7190.6,-24.154,-0.24908,-21.405,-20.243
7200.5,-22.154,1.7509,-22.405,-20.243
7210.4,-20.154,1.7509,-25.405,-21.243
7220.3,-20.154,2.7509,-26.405,-23.243
7230.2,-20.154,2.7509,-29.405,-23.243
7240.1,-23.154,0.75092,-31.405,-25.243
7249.9,-26.154,-0.24908,-33.405,-26.243
7259.8,-31.154,-2.2491,-33.405,-25.243
7269.7,-32.154,-3.2491,-31.405,-24.243
7279.6,-33.154,-2.2491,-25.405,-21.243
7289.5,-36.154,-3.2491,-22.405,-19.243
7299.4,-37.154,-3.2491,-20.405,-17.243
7309.2,-36.154,-5.2491,-14.405,-16.243
7319.1,-38.154,-3.2491,-11.405,-12.243
7329.0,-39.154,-2.2491,-7.4046,-11.243
7338.9,-38.154,-3.2491,-3.4046,-10.243
7348.8,-39.154,-3.2491,-2.4046,-9.2427
7358.7,-39.154,-3.2491,-0.40456,-10.243
7368.6,-38.154,-4.2491,1.5954,-10.243
7378.5,-38.154,-4.2491,1.5954,-9.2427
7388.3,-38.154,-4.2491,-0.40456,-8.2427
7398.2,-38.154,-4.2491,-0.40456,-10.243
7408.1,-38.154,-2.2491,-1.4046,-11.243
7418.0,-36.154,-3.2491,-5.4046,-13.243
7427.9,-37.154,-2.2491,-5.4046,-14.243
7437.8,-36.154,-4.2491,-7.4046,-13.243
7447.6,-35.154,-2.2491,-8.4046,-15.243
7457.5,-39.154,-3.2491,-12.405,-17.243
7467.4,-37.154,-3.2491,-15.405,-18.243
7477.3,-38.154,-2.2491,-18.405,-19.243
7487.2,-39.154,-3.2491,-14.405,-19.243
7497.1,-38.154,-5.2491,-15.405,-18.243
7507.0,-39.154,-4.2491,-15.405,-18.243
7516.8,-39.154,-4.2491,-15.405,-17.243
7526.7,-39.154,-4.2491,-13.405,-16.243
7536.6,-41.154,-4.2491,-11.405,-16.243
7546.5,-39.154,-4.2491,-12.405,-16.243
7556.4,-39.154,-4.2491,-12.405,-15.243
7566.3,-40.154,-3.2491,-10.405,-14.243
7576.2,-40.154,-3.2491,-10.405,-14.243
7586.0,-37.154,-4.2491,-9.4046,-13.243
7595.9,-37.154,-4.2491,-9.4046,-13.243
7605.8,-37.154,-3.2491,-9.4046,-14.243
7615.7,-37.154,-3.2491,-9.4046,-14.243
7625.6,-35.154,-1.2491,-9.4046,-13.243
7635.5,-35.154,-1.2491,-9.4046,-13.243
7645.4,-33.154,-2.2491,-10.405,-15.243
7655.2,-33.154,-2.2491,-10.405,-15.243
7665.1,-30.154,-1.2491,-15.405,-16.243
7675.0,-30.154,-1.2491,-15.405,-16.243
7684.9,-30.154,-0.24908,-14.405,-16.243
7694.8,-30.154,-0.24908,-14.405,-16.243
7704.7,-30.154,-0.24908,-17.405,-16.243
7714.6,-28.154,-0.24908,-17.405,-16.243
7724.4,-28.154,0.75092,-15.405,-17.243
7734.3,-29.154,0.75092,-15.405,-17.243
7744.2,-26.154,1.7509,-13.405,-16.243
7754.1,-25.154,1.7509,-13.405,-16.243
7764.0,-24.154,1.7509,-17.405,-16.243
7773.9,-24.154,2.7509,-17.405,-16.243
7783.8,-22.154,1.7509,-16.405,-15.243
7793.6,-22.154,3.7509,-16.405,-15.243
7803.5,-20.154,3.7509,-17.405,-16.243
7813.4,-19.154,4.7509,-16.405,-16.243
7823.3,-18.154,4.7509,-17.405,-16.243
7833.2,-17.154,6.7509,-19.405,-18.243
7843.1,-16.154,6.7509,-22.405,-18.243
7853.0,-15.154,7.7509,-21.405,-18.243
7862.8,-13.154,9.7509,-21.405,-16.243
7872.7,-12.154,10.751,-21.405,-18.243
7882.6,-9.1536,12.751,-24.405,-18.243
7892.5,-8.1536,12.751,-25.405,-19.243
7902.4,-8.1536,11.751,-28.405,-20.243
7912.3,-12.154,10.751,-29.405,-21.243
7922.2,-17.154,8.7509,-31.405,-21.243
7932.0,-21.154,8.7509,-30.405,-20.243
7941.9,-23.154,7.7509,-29.405,-19.243
7951.8,-23.154,7.7509,-21.405,-16.243
7961.7,-25.154,7.7509,-17.405,-12.243
7971.6,-24.154,5.7509,-14.405,-10.243
7981.5,-27.154,6.7509,-8.4046,-8.2427
7991.4,-27.154,7.7509,-3.4046,-5.2427
8001.2,-26.154,7.7509,-0.40456,-4.2427
8011.1,-27.154,8.7509,2.5954,-2.2427
8021.0,-25.154,9.7509,2.5954,-3.2427
8030.9,-25.154,8.7509,5.5954,-3.2427
8040.8,-24.154,8.7509,4.5954,-4.2427
8050.7,-24.154,8.7509,3.5954,-3.2427
8060.6,-25.154,6.7509,4.5954,-2.2427
8070.4,-24.154,7.7509,3.5954,-4.2427
8080.3,-24.154,7.7509,0.59544,-5.2427
8090.2,-23.154,7.7509,0.59544,-6.2427
8100.1,-20.154,8.7509,-0.40456,-6.2427
8110.0,-20.154,9.7509,-0.40456,-6.2427
8119.9,-22.154,6.7509,-4.4046,-7.2427
8129.8,-23.154,5.7509,-4.4046,-9.2427
8139.6,-24.154,4.7509,-6.4046,-9.2427
8149.5,-24.154,4.7509,-6.4046,-9.2427
8159.4,-24.154,2.7509,-3.4046,-8.2427
8169.3,-24.154,1.7509,-1.4046,-7.2427
8179.2,-25.154,1.7509,-1.4046,-5.2427
8189.1,-24.154,1.7509,-0.40456,-5.2427
8199.0,-24.154,1.7509,-0.40456,-6.2427
8208.8,-24.154,0.75092,-0.40456,-5.2427
8218.7,-25.154,-0.24908,0.59544,-5.2427
8228.6,-24.154,-0.24908,1.5954,-5.2427
8238.5,-24.154,-0.24908,-0.40456,-7.2427
8248.4,-25.154,-0.24908,0.59544,-7.2427
8258.3,-25.154,-1.2491,0.59544,-4.2427
8268.2,-25.154,-1.2491,1.5954,-5.2427
8278.0,-23.154,0.75092,0.59544,-3.2427
8287.9,-23.154,0.75092,1.5954,-4.2427
8297.8,-22.154,-1.2491,1.5954,-4.2427
8307.7,-22.154,-1.2491,0.59544,-5.2427
8317.6,-22.154,-1.2491,-2.4046,-5.2427
8327.5,-22.154,-1.2491,-5.4046,-6.2427
8337.4,-21.154,-2.2491,-2.4046,-7.2427
8347.2,-21.154,-2.2491,-4.4046,-6.2427
8357.1,-18.154,-3.2491,-3.4046,-7.2427
8367.0,-18.154,-3.2491,-3.4046,-6.2427
8376.9,-19.154,-1.2491,-5.4046,-8.2427
8386.8,-19.154,-1.2491,-6.4046,-7.2427
8396.7,-15.154,-1.2491,-7.4046,-8.2427
8406.6,-15.154,-1.2491,-6.4046,-9.2427
8416.4,-16.154,-0.24908,-7.4046,-8.2427
8426.3,-14.154,-0.24908,-7.4046,-8.2427
8436.2,-13.154,-0.24908,-8.4046,-8.2427
8446.1,-13.154,1.7509,-8.4046,-8.2427
8456.0,-9.1536,2.7509,-7.4046,-8.2427
8465.9,-11.154,1.7509,-9.4046,-7.2427
8475.8,-9.1536,2.7509,-6.4046,-8.2427
8485.6,-6.1536,3.7509,-8.4046,-8.2427
8495.5,-3.1536,4.7509,-10.405,-9.2427
8505.4,-3.1536,5.7509,-13.405,-10.243
8515.3,-5.1536,4.7509,-15.405,-11.243
8525.2,-6.1536,3.7509,-17.405,-11.243
8535.1,-11.154,2.7509,-17.405,-10.243
8545.0,-15.154,1.7509,-15.405,-10.243
8554.8,-16.154,0.75092,-10.405,-8.2427
8564.7,-18.154,-0.24908,-8.4046,-5.2427
8574.6,-20.154,1.7509,-2.4046,-3.2427
8584.5,-19.154,-0.24908,3.5954,0.75725
8594.4,-21.154,-1.2491,8.5954,2.7573
8604.3,-21.154,-1.2491,13.595,6.7573
8614.2,-24.154,-2.2491,17.595,7.7573
8624.0,-23.154,-2.2491,19.595,9.7573
8633.9,-22.154,-1.2491,21.595,10.757
8643.8,-20.154,-2.2491,19.595,8.7573
8653.7,-22.154,-2.2491,21.595,8.7573
8663.6,-21.154,-1.2491,21.595,8.7573
8673.5,-21.154,-1.2491,21.595,9.7573
8683.4,-21.154,-1.2491,21.595,9.7573
8693.2,-21.154,-2.2491,19.595,7.7573
8703.1,-18.154,-0.24908,19.595,7.7573
8713.0,-20.154,-2.2491,17.595,6.7573
8722.9,-16.154,-1.2491,17.595,6.7573
8732.8,-19.154,-3.2491,13.595,3.7573
8742.7,-19.154,-4.2491,13.595,3.7573
8752.6,-20.154,-4.2491,9.5954,1.7573
8762.4,-20.154,-4.2491,9.5954,1.7573
8772.3,-18.154,-3.2491,10.595,1.7573
8782.2,-20.154,-5.2491,10.595,1.7573
8792.1,-20.154,-4.2491,10.595,1.7573
8802.0,-19.154,-4.2491,10.595,1.7573
8811.9,-21.154,-5.2491,12.595,2.7573
8821.8,-20.154,-6.2491,12.595,2.7573
8831.6,-20.154,-5.2491,12.595,2.7573
8841.5,-19.154,-5.2491,12.595,2.7573
8851.4,-20.154,-6.2491,13.595,3.7573
8861.3,-18.154,-3.2491,13.595,3.7573
8871.2,-17.154,-2.2491,13.595,3.7573
8881.1,-17.154,-5.2491,13.595,3.7573
8891.0,-17.154,-3.2491,12.595,2.7573
8900.8,-17.154,-4.2491,12.595,2.7573
8910.7,-15.154,-4.2491,9.5954,1.7573
8920.6,-15.154,-4.2491,9.5954,0.75725
8930.5,-16.154,-3.2491,9.5954,0.75725
8940.4,-12.154,-3.2491,7.5954,0.75725
8950.3,-13.154,-3.2491,8.5954,-1.2427
8960.2,-12.154,-3.2491,7.5954,-0.24275
8970.0,-10.154,-2.2491,7.5954,0.75725
8979.9,-10.154,-2.2491,8.5954,1.7573
8989.8,-7.1536,-1.2491,7.5954,0.75725
8999.7,-7.1536,-1.2491,6.5954,-1.2427
9009.6,-6.1536,-0.24908,7.5954,-0.24275
9019.5,-6.1536,-0.24908,5.5954,-1.2427
9029.4,-3.1536,1.7509,3.5954,-1.2427
9039.2,-3.1536,1.7509,2.5954,-1.2427
9049.1,-2.1536,0.75092,2.5954,-0.24275
9059.0,-2.1536,0.75092,6.5954,0.75725
9068.9,2.8464,2.7509,7.5954,1.7573
9078.8,2.8464,2.7509,4.5954,0.75725
9088.7,8.8464,4.7509,5.5954,0.75725
9098.6,8.8464,4.7509,4.5954,0.75725
9108.4,5.8464,4.7509,1.5954,-1.2427
9118.3,5.8464,4.7509,0.59544,-2.2427
9128.2,2.8464,3.7509,-0.40456,-3.2427
9138.1,-0.15357,1.7509,0.59544,-1.2427
9148.0,-3.1536,2.7509,5.5954,1.7573
9157.9,-4.1536,1.7509,10.595,2.7573
9167.8,-4.1536,0.75092,15.595,6.7573
9177.6,-5.1536,1.7509,21.595,9.7573
9187.5,-5.1536,0.75092,26.595,10.757
9197.4,-4.1536,0.75092,30.595,14.757
9207.3,-6.1536,1.7509,33.595,15.757
9217.2,-5.1536,0.75092,37.595,17.757
9227.1,-3.1536,1.7509,40.595,18.757
9237.0,-4.1536,1.7509,41.595,18.757
9246.8,-2.1536,2.7509,40.595,16.757
9256.7,-0.15357,3.7509,40.595,16.757
9266.6,0.84643,3.7509,38.595,15.757
9276.5,1.8464,3.7509,36.595,14.757
9286.4,-1.1536,4.7509,33.595,12.757
9296.3,3.8464,4.7509,32.595,10.757
9306.2,3.8464,7.7509,24.595,8.7573
9316.0,5.8464,6.7509,19.595,5.7573
9325.9,4.8464,4.7509,14.595,2.7573
9335.8,5.8464,5.7509,9.5954,-0.24275
9345.7,6.8464,4.7509,3.5954,-1.2427
9355.6,6.8464,4.7509,-0.40456,-3.2427
9365.5,5.8464,3.7509,-1.4046,-3.2427
9375.4,6.8464,3.7509,-2.4046,-5.2427
9385.2,7.8464,3.7509,-3.4046,-5.2427
9395.1,6.8464,3.7509,-3.4046,-5.2427
9405.0,6.8464,4.7509,-6.4046,-5.2427
9414.9,7.8464,2.7509,-7.4046,-6.2427
9424.8,7.8464,2.7509,-10.405,-6.2427
9434.7,8.8464,4.7509,-10.405,-9.2427
9444.6,9.8464,4.7509,-14.405,-8.2427
9454.4,11.846,2.7509,-14.405,-9.2427
9464.3,12.846,3.7509,-15.405,-9.2427
9474.2,13.846,2.7509,-17.405,-11.243
9484.1,14.846,2.7509,-18.405,-11.243
9494.0,14.846,4.7509,-20.405,-11.243
9503.9,14.846,4.7509,-21.405,-12.243
9513.8,14.846,3.7509,-20.405,-13.243
9523.6,15.846,3.7509,-22.405,-12.243
9533.5,16.846,2.7509,-23.405,-12.243
9543.4,15.846,2.7509,-26.405,-15.243
9553.3,17.846,2.7509,-28.405,-16.243
9563.2,17.846,3.7509,-30.405,-17.243
9573.1,18.846,3.7509,-32.405,-17.243
9583.0,21.846,4.7509,-34.405,-19.243
9592.8,19.846,3.7509,-37.405,-20.243
9602.7,21.846,3.7509,-36.405,-19.243
9612.6,22.846,3.7509,-38.405,-19.243
9622.5,23.846,4.7509,-39.405,-19.243
9632.4,23.846,5.7509,-40.405,-21.243
9642.3,27.846,6.7509,-43.405,-22.243
9652.2,28.846,6.7509,-45.405,-24.243
9662.0,29.846,5.7509,-49.405,-25.243
9671.9,30.846,6.7509,-50.405,-27.243
9681.8,33.846,9.7509,-47.405,-25.243
9691.7,35.846,11.751,-48.405,-25.243
9701.6,35.846,11.751,-50.405,-25.243
9711.5,35.846,11.751,-51.405,-25.243
9721.4,34.846,11.751,-52.405,-26.243
9731.2,34.846,11.751,-53.405,-27.243
9741.1,26.846,8.7509,-54.405,-27.243
9751.0,26.846,8.7509,-54.405,-27.243
9760.9,25.846,7.7509,-46.405,-24.243
9770.8,25.846,7.7509,-46.405,-24.243
9780.7,22.846,5.7509,-39.405,-20.243
9790.6,22.846,5.7509,-39.405,-20.243
9800.4,22.846,7.7509,-33.405,-19.243
9810.3,22.846,7.7509,-33.405,-19.243
9820.2,25.846,7.7509,-29.405,-18.243
9830.1,25.846,7.7509,-29.405,-18.243
9840.0,26.846,6.7509,-28.405,-18.243
9849.9,26.846,6.7509,-28.405,-18.243
9859.7,23.846,6.7509,-27.405,-16.243
9869.6,25.846,7.7509,-27.405,-16.243
9879.5,26.846,7.7509,-25.405,-16.243
9889.4,24.846,6.7509,-25.405,-16.243
9899.3,27.846,8.7509,-29.405,-19.243
9909.2,26.846,8.7509,-29.405,-19.243
9919.1,28.846,9.7509,-32.405,-20.243
9929.0,28.846,8.7509,-32.405,-20.243
9938.8,28.846,6.7509,-37.405,-23.243
9948.7,28.846,7.7509,-37.405,-23.243
9958.6,28.846,8.7509,-38.405,-24.243
9968.5,28.846,9.7509,-36.405,-23.243
9978.4,29.846,8.7509,-34.405,-22.243
9988.3,27.846,7.7509,-35.405,-21.243
9998.1,31.846,8.7509,-33.405,-20.243
10008.0,29.846,7.7509,-32.405,-20.243
10018.0,31.846,10.751,-29.405,-18.243
10028.0,29.846,7.7509,-27.405,-15.243
10038.0,32.846,8.7509,-24.405,-14.243
10048.0,31.846,8.7509,-22.405,-14.243
10058.0,33.846,8.7509,-20.405,-12.243
10067.0,32.846,9.7509,-19.405,-10.243
10077.0,34.846,10.751,-19.405,-9.2427
10087.0,34.846,9.7509,-19.405,-12.243
10097.0,36.846,8.7509,-21.405,-13.243
10107.0,36.846,9.7509,-24.405,-14.243
10117.0,36.846,10.751,-25.405,-15.243
10127.0,39.846,11.751,-30.405,-16.243
10137.0,40.846,11.751,-29.405,-16.243
10146.0,40.846,12.751,-31.405,-17.243
10156.0,40.846,12.751,-32.405,-19.243
10166.0,43.846,12.751,-31.405,-18.243
10176.0,43.846,12.751,-31.405,-18.243
10186.0,44.846,13.751,-30.405,-16.243
10196.0,44.846,12.751,-31.405,-18.243
10206.0,46.846,12.751,-31.405,-17.243
10216.0,45.846,14.751,-33.405,-18.243
10226.0,50.846,14.751,-32.405,-18.243
10235.0,51.846,13.751,-35.405,-18.243
10245.0,52.846,15.751,-34.405,-19.243
10255.0,54.846,14.751,-35.405,-20.243
10265.0,57.846,17.751,-34.405,-18.243
10275.0,59.846,17.751,-35.405,-19.243
10285.0,60.846,17.751,-37.405,-19.243
10295.0,61.846,21.751,-38.405,-21.243
10305.0,64.846,21.751,-41.405,-22.243
10315.0,66.846,21.751,-40.405,-22.243
10324.0,67.846,22.751,-45.405,-24.243
10334.0,67.846,22.751,-46.405,-25.243
10344.0,64.846,21.751,-47.405,-25.243
10354.0,60.846,20.751,-46.405,-27.243
10364.0,58.846,19.751,-46.405,-25.243
10374.0,56.846,18.751,-44.405,-23.243
10384.0,56.846,17.751,-36.405,-20.243
10394.0,55.846,17.751,-32.405,-16.243
10404.0,54.846,17.751,-23.405,-14.243
10413.0,54.846,17.751,-19.405,-11.243
10423.0,54.846,17.751,-15.405,-11.243
10433.0,55.846,16.751,-12.405,-9.2427
10443.0,55.846,16.751,-10.405,-8.2427
10453.0,56.846,16.751,-6.4046,-7.2427
10463.0,56.846,16.751,-7.4046,-7.2427
10473.0,58.846,17.751,-7.4046,-6.2427
10483.0,58.846,17.751,-6.4046,-8.2427
10492.0,59.846,17.751,-6.4046,-7.2427
10502.0,59.846,17.751,-5.4046,-8.2427
10512.0,62.846,20.751,-5.4046,-7.2427
10522.0,62.846,20.751,-6.4046,-9.2427
10532.0,63.846,19.751,-6.4046,-9.2427
10542.0,63.846,19.751,-9.4046,-10.243
10552.0,63.846,16.751,-10.405,-12.243
10562.0,63.846,16.751,-11.405,-11.243
10572.0,63.846,18.751,-11.405,-12.243
10581.0,62.846,17.751,-9.4046,-12.243
10591.0,62.846,17.751,-10.405,-12.243
10601.0,63.846,18.751,-13.405,-13.243
10611.0,61.846,16.751,-10.405,-11.243
10621.0,60.846,16.751,-11.405,-11.243
10631.0,60.846,14.751,-7.4046,-10.243
10641.0,61.846,15.751,-7.4046,-8.2427
10651.0,62.846,15.751,-5.4046,-9.2427
10661.0,63.846,16.751,-3.4046,-6.2427
10670.0,63.846,15.751,-3.4046,-8.2427
10680.0,62.846,16.751,-4.4046,-8.2427
10690.0,64.846,15.751,-3.4046,-8.2427
10700.0,64.846,15.751,-2.4046,-6.2427
10710.0,66.846,17.751,-0.40456,-6.2427
10720.0,65.846,16.751,-2.4046,-6.2427
10730.0,65.846,17.751,-3.4046,-7.2427
10740.0,65.846,16.751,-4.4046,-9.2427
10750.0,68.846,18.751,-3.4046,-8.2427
10759.0,67.846,18.751,-4.4046,-9.2427
10769.0,70.846,17.751,-3.4046,-9.2427
10779.0,71.846,18.751,-4.4046,-8.2427
10789.0,70.846,18.751,-5.4046,-9.2427
10799.0,72.846,17.751,-7.4046,-11.243
10809.0,73.846,18.751,-9.4046,-10.243
10819.0,74.846,20.751,-11.405,-12.243
10829.0,75.846,18.751,-9.4046,-12.243
10838.0,76.846,18.751,-9.4046,-12.243
10848.0,77.846,19.751,-12.405,-13.243
10858.0,77.846,19.751,-12.405,-12.243
10868.0,77.846,19.751,-15.405,-14.243
10878.0,78.846,21.751,-15.405,-14.243
10888.0,80.846,21.751,-17.405,-14.243
10898.0,82.846,21.751,-17.405,-14.243
10908.0,82.846,23.751,-21.405,-17.243
10918.0,84.846,22.751,-21.405,-17.243
10927.0,84.846,23.751,-23.405,-18.243
10937.0,85.846,24.751,-23.405,-18.243
10947.0,86.846,25.751,-24.405,-20.243
10957.0,89.846,26.751,-24.405,-20.243
10967.0,89.846,26.751,-28.405,-20.243
10977.0,88.846,26.751,-28.405,-20.243
10987.0,88.846,26.751,-28.405,-22.243
10997.0,82.846,25.751,-28.405,-22.243
11007.0,80.846,24.751,-25.405,-19.243
11016.0,80.846,23.751,-25.405,-19.243
11026.0,78.846,24.751,-16.405,-15.243
11036.0,77.846,23.751,-16.405,-15.243
11046.0,78.846,23.751,-9.4046,-11.243
11056.0,77.846,22.751,-9.4046,-11.243
11066.0,76.846,21.751,-1.4046,-8.2427
11076.0,77.846,22.751,-1.4046,-8.2427
11086.0,77.846,22.751,1.5954,-6.2427
11096.0,78.846,23.751,3.5954,-7.2427
11105.0,79.846,23.751,5.5954,-6.2427
11115.0,80.846,23.751,8.5954,-5.2427
11125.0,80.846,23.751,7.5954,-5.2427
11135.0,82.846,23.751,5.5954,-5.2427
11145.0,82.846,25.751,5.5954,-7.2427
11155.0,82.846,25.751,3.5954,-9.2427
11165.0,83.846,24.751,1.5954,-9.2427
11175.0,83.846,24.751,-0.40456,-11.243
11184.0,84.846,24.751,-3.4046,-13.243
11194.0,84.846,24.751,-5.4046,-13.243
11204.0,84.846,24.751,-6.4046,-14.243
11214.0,84.846,24.751,-8.4046,-16.243
11224.0,85.846,23.751,-12.405,-16.243
11234.0,85.846,23.751,-11.405,-16.243
11244.0,83.846,23.751,-13.405,-16.243
11254.0,83.846,23.751,-13.405,-17.243
11264.0,82.846,23.751,-12.405,-16.243
11273.0,82.846,23.751,-14.405,-17.243
11283.0,82.846,23.751,-13.405,-16.243
11293.0,83.846,22.751,-13.405,-16.243
11303.0,83.846,24.751,-12.405,-15.243
11313.0,85.846,24.751,-11.405,-16.243
11323.0,85.846,25.751,-14.405,-17.243
11333.0,85.846,24.751,-12.405,-16.243
11343.0,85.846,23.751,-13.405,-17.243
11353.0,87.846,23.751,-14.405,-15.243
11362.0,86.846,24.751,-11.405,-16.243
11372.0,85.846,23.751,-14.405,-15.243
11382.0,86.846,24.751,-15.405,-17.243
11392.0,89.846,25.751,-14.405,-17.243
11402.0,89.846,23.751,-17.405,-18.243
11412.0,90.846,25.751,-14.405,-17.243
11422.0,89.846,24.751,-16.405,-17.243
11432.0,91.846,24.751,-14.405,-16.243
11442.0,92.846,25.751,-15.405,-16.243
11451.0,90.846,25.751,-17.405,-17.243
11461.0,93.846,26.751,-17.405,-17.243
11471.0,93.846,26.751,-16.405,-18.243
11481.0,95.846,26.751,-18.405,-17.243
11491.0,95.846,26.751,-16.405,-17.243
11501.0,97.846,26.751,-17.405,-18.243
11511.0,97.846,26.751,-18.405,-18.243
11521.0,95.846,26.751,-20.405,-17.243
11530.0,97.846,26.751,-21.405,-18.243
11540.0,98.846,26.751,-22.405,-20.243
11550.0,100.85,27.751,-20.405,-19.243
11560.0,100.85,28.751,-21.405,-18.243
11570.0,100.85,29.751,-20.405,-18.243
11580.0,103.85,31.751,-22.405,-18.243
11590.0,107.85,32.751,-22.405,-19.243
11600.0,108.85,33.751,-26.405,-19.243
11610.0,106.85,32.751,-25.405,-20.243
11619.0,105.85,31.751,-24.405,-20.243
11629.0,104.85,32.751,-26.405,-20.243
11639.0,100.85,30.751,-25.405,-18.243
11649.0,97.846,29.751,-20.405,-17.243
11659.0,97.846,29.751,-16.405,-14.243
11669.0,94.846,28.751,-13.405,-11.243
11679.0,93.846,28.751,-5.4046,-10.243
11689.0,90.846,25.751,0.59544,-6.2427
11699.0,91.846,27.751,4.5954,-3.2427
11708.0,90.846,28.751,8.5954,-1.2427
11718.0,90.846,27.751,14.595,-0.24275
11728.0,89.846,27.751,16.595,0.75725
11738.0,89.846,27.751,16.595,0.75725
11748.0,89.846,25.751,19.595,0.75725
11758.0,90.846,27.751,17.595,1.7573
11768.0,89.846,26.751,19.595,1.7573
11778.0,88.846,25.751,17.595,-0.24275
11788.0,88.846,25.751,16.595,-0.24275
11797.0,90.846,25.751,15.595,-2.2427
11807.0,90.846,27.751,11.595,-4.2427
11817.0,91.846,26.751,9.5954,-5.2427
11827.0,89.846,25.751,6.5954,-7.2427
11837.0,89.846,25.751,6.5954,-8.2427
11847.0,87.846,25.751,1.5954,-8.2427
11857.0,88.846,26.751,0.59544,-10.243
11867.0,88.846,26.751,1.5954,-10.243
11876.0,88.846,24.751,0.59544,-8.2427
11886.0,88.846,24.751,0.59544,-8.2427
11896.0,87.846,23.751,4.5954,-7.2427
11906.0,87.846,23.751,6.5954,-5.2427
11916.0,88.846,23.751,6.5954,-5.2427
11926.0,88.846,23.751,6.5954,-5.2427
11936.0,86.846,23.751,5.5954,-6.2427
11946.0,86.846,23.751,5.5954,-6.2427
11956.0,88.846,22.751,4.5954,-7.2427
11965.0,88.846,22.751,4.5954,-7.2427
11975.0,88.846,22.751,5.5954,-6.2427
11985.0,88.846,22.751,5.5954,-6.2427
11995.0,89.846,23.751,5.5954,-6.2427
12005.0,89.846,23.751,5.5954,-6.2427
12015.0,90.846,22.751,4.5954,-6.2427
12025.0,91.846,24.751,4.5954,-6.2427
12035.0,90.846,23.751,7.5954,-6.2427
12045.0,90.846,24.751,7.5954,-6.2427
12054.0,89.846,23.751,4.5954,-7.2427
12064.0,90.846,24.751,4.5954,-7.2427
12074.0,91.846,24.751,4.5954,-6.2427
12084.0,91.846,23.751,4.5954,-6.2427
12094.0,90.846,24.751,5.5954,-6.2427
12104.0,93.846,24.751,5.5954,-6.2427
12114.0,93.846,23.751,4.5954,-7.2427
12124.0,92.846,23.751,4.5954,-7.2427
12134.0,93.846,23.751,2.5954,-6.2427
12143.0,93.846,24.751,3.5954,-6.2427
12153.0,95.846,24.751,4.5954,-7.2427
12163.0,94.846,24.751,0.59544,-8.2427
12173.0,96.846,25.751,1.5954,-7.2427
12183.0,97.846,24.751,2.5954,-7.2427
12193.0,97.846,25.751,2.5954,-6.2427
12203.0,99.846,27.751,2.5954,-8.2427
12213.0,102.85,27.751,1.5954,-7.2427
12222.0,102.85,30.751,1.5954,-7.2427
12232.0,102.85,29.751,-0.40456,-7.2427
12242.0,103.85,30.751,-1.4046,-8.2427
12252.0,101.85,28.751,-1.4046,-10.243
12262.0,97.846,27.751,-1.4046,-8.2427
12272.0,93.846,26.751,-0.40456,-8.2427
12282.0,89.846,23.751,0.59544,-7.2427
12292.0,89.846,23.751,5.5954,-4.2427
12302.0,86.846,22.751,10.595,-2.2427
12311.0,85.846,21.751,16.595,1.7573
12321.0,83.846,21.751,20.595,2.7573
12331.0,81.846,19.751,25.595,4.7573
12341.0,80.846,19.751,28.595,8.7573
12351.0,79.846,19.751,31.595,8.7573
12361.0,77.846,19.751,33.595,7.7573
12371.0,76.846,17.751,34.595,8.7573
12381.0,76.846,17.751,36.595,8.7573
12391.0,76.846,17.751,34.595,6.7573
12400.0,75.846,15.751,34.595,7.7573
12410.0,74.846,15.751,33.595,7.7573
12420.0,77.846,16.751,33.595,6.7573
12430.0,73.846,13.751,30.595,3.7573
12440.0,76.846,15.751,28.595,3.7573
12450.0,74.846,13.751,25.595,2.7573
12460.0,71.846,11.751,22.595,-0.24275
12470.0,71.846,12.751,19.595,-2.2427
12480.0,70.846,10.751,15.595,-3.2427
12489.0,69.846,9.7509,12.595,-3.2427
12499.0,68.846,9.7509,14.595,-3.2427
12509.0,65.846,7.7509,13.595,-3.2427
12519.0,65.846,6.7509,13.595,-3.2427
12529.0,65.846,5.7509,14.595,-4.2427
12539.0,64.846,5.7509,13.595,-2.2427
12549.0,62.846,5.7509,13.595,-3.2427
12559.0,63.846,3.7509,12.595,-4.2427
12568.0,62.846,3.7509,14.595,-1.2427
12578.0,62.846,3.7509,14.595,-3.2427
12588.0,62.846,3.7509,14.595,-3.2427
12598.0,62.846,3.7509,14.595,-4.2427
12608.0,59.846,3.7509,12.595,-3.2427
12618.0,59.846,3.7509,9.5954,-4.2427
12628.0,60.846,2.7509,11.595,-3.2427
12638.0,60.846,2.7509,9.5954,-6.2427
12648.0,58.846,0.75092,10.595,-3.2427
12657.0,58.846,0.75092,12.595,-3.2427
12667.0,60.846,0.75092,9.5954,-4.2427
12677.0,60.846,0.75092,9.5954,-3.2427
12687.0,61.846,-0.24908,6.5954,-5.2427
12697.0,61.846,-0.24908,7.5954,-6.2427
12707.0,59.846,-1.2491,4.5954,-6.2427
12717.0,59.846,-1.2491,4.5954,-7.2427
12727.0,58.846,-0.24908,2.5954,-7.2427
12737.0,58.846,-1.2491,-0.40456,-9.2427
12746.0,60.846,0.75092,1.5954,-8.2427
12756.0,59.846,0.75092,0.59544,-10.243
12766.0,59.846,0.75092,-2.4046,-10.243
12776.0,60.846,0.75092,-4.4046,-9.2427
12786.0,61.846,0.75092,-3.4046,-9.2427
12796.0,59.846,0.75092,-3.4046,-10.243
12806.0,61.846,2.7509,-5.4046,-11.243
12816.0,63.846,2.7509,-6.4046,-12.243
12825.0,65.846,3.7509,-6.4046,-12.243
12835.0,66.846,3.7509,-9.4046,-12.243
12845.0,66.846,3.7509,-11.405,-13.243
12855.0,67.846,6.7509,-12.405,-14.243
12865.0,62.846,3.7509,-15.405,-15.243
12875.0,55.846,2.7509,-13.405,-14.243
12885.0,52.846,1.7509,-11.405,-13.243
12895.0,49.846,-0.24908,-6.4046,-9.2427
12905.0,47.846,-1.2491,-2.4046,-7.2427
12914.0,43.846,-2.2491,3.5954,-3.2427
12924.0,42.846,-2.2491,8.5954,-0.24275
12934.0,41.846,-3.2491,13.595,1.7573
12944.0,36.846,-5.2491,17.595,2.7573
12954.0,36.846,-6.2491,21.595,5.7573
12964.0,33.846,-6.2491,26.595,7.7573
12974.0,34.846,-5.2491,23.595,6.7573
12984.0,33.846,-7.2491,23.595,6.7573
12994.0,32.846,-7.2491,23.595,4.7573
13003.0,31.846,-8.2491,21.595,5.7573
13013.0,28.846,-6.2491,20.595,4.7573
13023.0,29.846,-7.2491,20.595,2.7573
13033.0,29.846,-7.2491,20.595,2.7573
13043.0,28.846,-9.2491,14.595,0.75725
13053.0,29.846,-7.2491,14.595,0.75725
13063.0,27.846,-7.2491,12.595,-1.2427
13073.0,28.846,-9.2491,12.595,-1.2427
13083.0,26.846,-10.249,13.595,-1.2427
13092.0,24.846,-10.249,13.595,-1.2427
13102.0,24.846,-10.249,13.595,0.75725
13112.0,24.846,-10.249,13.595,0.75725
13122.0,21.846,-12.249,17.595,2.7573
13132.0,21.846,-11.249,17.595,2.7573
13142.0,18.846,-14.249,18.595,3.7573
13152.0,17.846,-13.249,18.595,3.7573
13162.0,18.846,-13.249,19.595,2.7573
13171.0,17.846,-14.249,19.595,2.7573
13181.0,16.846,-14.249,18.595,1.7573
13191.0,17.846,-14.249,18.595,1.7573
13201.0,14.846,-14.249,16.595,2.7573
13211.0,14.846,-14.249,16.595,2.7573
13221.0,16.846,-15.249,17.595,0.75725
13231.0,15.846,-15.249,17.595,0.75725
13241.0,15.846,-14.249,17.595,1.7573
13251.0,16.846,-14.249,17.595,1.7573
13260.0,16.846,-14.249,15.595,0.75725
13270.0,16.846,-15.249,15.595,2.7573
13280.0,16.846,-15.249,15.595,2.7573
13290.0,15.846,-15.249,17.595,1.7573
13300.0,14.846,-15.249,16.595,1.7573
13310.0,14.846,-15.249,14.595,2.7573
13320.0,15.846,-15.249,12.595,0.75725
13330.0,15.846,-15.249,12.595,-0.24275
13340.0,17.846,-14.249,8.5954,-0.24275
13349.0,17.846,-14.249,9.5954,-1.2427
13359.0,18.846,-15.249,8.5954,-1.2427
13369.0,18.846,-15.249,8.5954,-1.2427
13379.0,19.846,-12.249,9.5954,-0.24275
13389.0,19.846,-12.249,9.5954,-0.24275
13399.0,20.846,-12.249,7.5954,-0.24275
13409.0,20.846,-12.249,8.5954,-1.2427
13419.0,25.846,-11.249,8.5954,-0.24275
13429.0,25.846,-11.249,8.5954,-0.24275
13438.0,25.846,-8.2491,5.5954,-2.2427
13448.0,28.846,-7.2491,4.5954,-2.2427
13458.0,28.846,-6.2491,1.5954,-4.2427
13468.0,26.846,-5.2491,1.5954,-5.2427
13478.0,23.846,-8.2491,-0.40456,-4.2427
13488.0,18.846,-9.2491,2.5954,-3.2427
13498.0,14.846,-10.249,3.5954,-2.2427
13508.0,11.846,-12.249,9.5954,1.7573
13517.0,7.8464,-12.249,16.595,3.7573
13527.0,4.8464,-14.249,21.595,7.7573
13537.0,4.8464,-13.249,26.595,9.7573
13547.0,2.8464,-16.249,29.595,12.757
13557.0,0.84643,-16.249,34.595,14.757
13567.0,-2.1536,-16.249,36.595,13.757
13577.0,-3.1536,-17.249,40.595,14.757
13587.0,-6.1536,-18.249,39.595,15.757
13597.0,-4.1536,-18.249,40.595,15.757
13606.0,-5.1536,-18.249,41.595,16.757
13616.0,-6.1536,-16.249,41.595,14.757
13626.0,-6.1536,-19.249,40.595,12.757
13636.0,-7.1536,-18.249,36.595,12.757
13646.0,-6.1536,-18.249,35.595,11.757
13656.0,-6.1536,-18.249,33.595,10.757
13666.0,-6.1536,-18.249,31.595,9.7573
13676.0,-6.1536,-19.249,29.595,9.7573
13686.0,-8.1536,-19.249,25.595,6.7573
13695.0,-11.154,-21.249,26.595,5.7573
13705.0,-10.154,-21.249,23.595,4.7573
13715.0,-12.154,-22.249,23.595,5.7573
13725.0,-13.154,-22.249,25.595,5.7573
13735.0,-14.154,-22.249,26.595,6.7573
13745.0,-14.154,-22.249,25.595,8.7573
13755.0,-16.154,-24.249,27.595,9.7573
13765.0,-16.154,-23.249,27.595,10.757
13775.0,-18.154,-24.249,29.595,10.757
13784.0,-17.154,-25.249,29.595,9.7573
13794.0,-17.154,-26.249,25.595,9.7573
13804.0,-18.154,-26.249,27.595,8.7573
13814.0,-17.154,-26.249,24.595,7.7573
13824.0,-18.154,-27.249,24.595,8.7573
13834.0,-18.154,-27.249,24.595,6.7573
13844.0,-18.154,-27.249,23.595,6.7573
13854.0,-16.154,-25.249,22.595,6.7573
13863.0,-17.154,-26.249,20.595,6.7573
13873.0,-18.154,-26.249,23.595,7.7573
13883.0,-16.154,-25.249,20.595,7.7573
13893.0,-16.154,-25.249,21.595,6.7573
13903.0,-18.154,-26.249,17.595,7.7573
13913.0,-18.154,-27.249,19.595,5.7573
13923.0,-17.154,-27.249,17.595,6.7573
13933.0,-16.154,-26.249,18.595,4.7573
13943.0,-16.154,-27.249,17.595,5.7573
13952.0,-15.154,-26.249,16.595,5.7573
13962.0,-15.154,-26.249,14.595,5.7573
13972.0,-13.154,-25.249,11.595,3.7573
13982.0,-13.154,-26.249,13.595,3.7573
13992.0,-11.154,-25.249,11.595,3.7573
14002.0,-13.154,-24.249,12.595,3.7573
14012.0,-11.154,-26.249,12.595,2.7573
14022.0,-11.154,-26.249,9.5954,3.7573
14032.0,-9.1536,-24.249,9.5954,3.7573
14041.0,-9.1536,-24.249,8.5954,3.7573
14051.0,-9.1536,-22.249,7.5954,3.7573
14061.0,-9.1536,-22.249,9.5954,3.7573
14071.0,-5.1536,-20.249,8.5954,3.7573
14081.0,-5.1536,-20.249,8.5954,4.7573
14091.0,-3.1536,-19.249,5.5954,2.7573
14101.0,-3.1536,-19.249,5.5954,2.7573
14111.0,-7.1536,-21.249,2.5954,1.7573
14121.0,-7.1536,-21.249,2.5954,1.7573
14130.0,-16.154,-24.249,8.5954,3.7573
14140.0,-16.154,-24.249,8.5954,3.7573
14150.0,-21.154,-25.249,20.595,10.757
14160.0,-21.154,-25.249,20.595,10.757
14170.0,-22.154,-25.249,30.595,14.757
14180.0,-24.154,-26.249,30.595,14.757
14190.0,-27.154,-27.249,37.595,18.757
14200.0,-25.154,-27.249,37.595,18.757
14209.0,-28.154,-26.249,41.595,20.757
14219.0,-29.154,-26.249,41.595,20.757
14229.0,-28.154,-29.249,45.595,21.757
14239.0,-28.154,-28.249,45.595,21.757
14249.0,-29.154,-28.249,43.595,20.757
14259.0,-29.154,-28.249,43.595,20.757
14269.0,-31.154,-29.249,36.595,15.757
14279.0,-29.154,-30.249,36.595,15.757
14289.0,-29.154,-30.249,32.595,13.757
14298.0,-30.154,-28.249,32.595,13.757
14308.0,-29.154,-29.249,27.595,12.757
14318.0,-31.154,-30.249,25.595,10.757
14328.0,-32.154,-30.249,25.595,10.757
14338.0,-31.154,-31.249,20.595,8.7573
14348.0,-31.154,-32.249,18.595,7.7573
14358.0,-32.154,-32.249,18.595,7.7573
14368.0,-34.154,-32.249,19.595,8.7573
14378.0,-34.154,-31.249,19.595,9.7573
14387.0,-35.154,-32.249,20.595,10.757
14397.0,-35.154,-33.249,21.595,10.757
14407.0,-35.154,-32.249,20.595,11.757
14417.0,-35.154,-31.249,17.595,10.757
14427.0,-32.154,-32.249,18.595,10.757
14437.0,-35.154,-32.249,18.595,10.757
14447.0,-33.154,-32.249,16.595,8.7573
14457.0,-34.154,-32.249,18.595,9.7573
14467.0,-34.154,-33.249,15.595,9.7573
14476.0,-33.154,-33.249,15.595,9.7573
14486.0,-32.154,-33.249,11.595,6.7573
14496.0,-33.154,-32.249,11.595,7.7573
14506.0,-33.154,-32.249,11.595,6.7573
14516.0,-31.154,-32.249,10.595,5.7573
14526.0,-31.154,-31.249,7.5954,6.7573
14536.0,-31.154,-32.249,8.5954,5.7573
14546.0,-31.154,-32.249,8.5954,6.7573
14555.0,-29.154,-31.249,8.5954,6.7573
14565.0,-28.154,-31.249,7.5954,4.7573
14575.0,-27.154,-32.249,2.5954,3.7573
14585.0,-28.154,-32.249,4.5954,5.7573
14595.0,-25.154,-29.249,2.5954,3.7573
14605.0,-24.154,-30.249,1.5954,3.7573
14615.0,-22.154,-30.249,1.5954,5.7573
14625.0,-23.154,-30.249,2.5954,5.7573
14635.0,-22.154,-29.249,1.5954,4.7573
14644.0,-22.154,-30.249,0.59544,6.7573
14654.0,-20.154,-29.249,1.5954,5.7573
14664.0,-19.154,-28.249,1.5954,5.7573
14674.0,-18.154,-27.249,0.59544,5.7573
14684.0,-18.154,-26.249,0.59544,4.7573
14694.0,-14.154,-27.249,-0.40456,4.7573
14704.0,-13.154,-25.249,-1.4046,3.7573
14714.0,-12.154,-25.249,-2.4046,4.7573
14724.0,-10.154,-24.249,-4.4046,3.7573
14733.0,-8.1536,-21.249,-3.4046,4.7573
14743.0,-7.1536,-21.249,-6.4046,2.7573
14753.0,-7.1536,-21.249,-6.4046,2.7573
14763.0,-6.1536,-20.249,-8.4046,2.7573
14773.0,-6.1536,-20.249,-8.4046,-0.24275
14783.0,-12.154,-23.249,-7.4046,2.7573
14793.0,-12.154,-23.249,-7.4046,2.7573
14803.0,-16.154,-23.249,-4.4046,4.7573
14813.0,-16.154,-23.249,0.59544,6.7573
14822.0,-20.154,-24.249,4.5954,10.757
14832.0,-20.154,-24.249,11.595,12.757
14842.0,-21.154,-25.249,17.595,16.757
14852.0,-21.154,-25.249,21.595,17.757
14862.0,-22.154,-26.249,24.595,19.757
14872.0,-22.154,-26.249,27.595,20.757
14882.0,-21.154,-26.249,26.595,19.757
14892.0,-22.154,-25.249,28.595,20.757
14901.0,-22.154,-25.249,28.595,19.757
14911.0,-20.154,-24.249,26.595,19.757
14921.0,-20.154,-23.249,25.595,18.757
14931.0,-21.154,-24.249,22.595,15.757
14941.0,-19.154,-24.249,18.595,12.757
14951.0,-18.154,-25.249,16.595,12.757
14961.0,-17.154,-24.249,12.595,11.757
14971.0,-14.154,-22.249,8.5954,9.7573
14981.0,-17.154,-24.249,6.5954,8.7573
14990.0,-18.154,-25.249,5.5954,6.7573
15000.0,-19.154,-24.249,-0.40456,5.7573
15010.0,-18.154,-25.249,0.59544,6.7573
15020.0,-17.154,-26.249,0.59544,6.7573
15030.0,-19.154,-25.249,-0.40456,6.7573
15040.0,-17.154,-25.249,1.5954,7.7573
15050.0,-19.154,-27.249,1.5954,6.7573
15060.0,-20.154,-26.249,1.5954,6.7573
15070.0,-18.154,-26.249,1.5954,8.7573
15079.0,-18.154,-25.249,3.5954,7.7573
15089.0,-16.154,-26.249,3.5954,7.7573
15099.0,-17.154,-24.249,2.5954,8.7573
15109.0,-18.154,-25.249,3.5954,7.7573
15119.0,-17.154,-25.249,1.5954,8.7573
15129.0,-15.154,-25.249,-0.40456,7.7573
15139.0,-14.154,-25.249,-0.40456,6.7573
15149.0,-14.154,-25.249,-1.4046,7.7573
15159.0,-13.154,-25.249,0.59544,7.7573
15168.0,-13.154,-24.249,-0.40456,6.7573
15178.0,-12.154,-25.249,-2.4046,5.7573
15188.0,-13.154,-24.249,-2.4046,6.7573
15198.0,-10.154,-23.249,-2.4046,5.7573
15208.0,-10.154,-23.249,-2.4046,5.7573
15218.0,-7.1536,-21.249,-5.4046,3.7573
15228.0,-7.1536,-22.249,-5.4046,3.7573
15238.0,-4.1536,-21.249,-8.4046,2.7573
15247.0,-5.1536,-21.249,-8.4046,2.7573
15257.0,-3.1536,-20.249,-10.405,3.7573
15267.0,-4.1536,-20.249,-10.405,3.7573
15277.0,-0.15357,-19.249,-13.405,1.7573
15287.0,-1.1536,-20.249,-13.405,1.7573
15297.0,-1.1536,-20.249,-13.405,1.7573
15307.0,0.84643,-19.249,-13.405,1.7573
15317.0,2.8464,-18.249,-14.405,3.7573
15327.0,1.8464,-20.249,-14.405,3.7573
15336.0,2.8464,-18.249,-14.405,1.7573
15346.0,3.8464,-18.249,-14.405,1.7573
15356.0,4.8464,-17.249,-17.405,1.7573
15366.0,5.8464,-19.249,-17.405,1.7573
15376.0,5.8464,-16.249,-17.405,1.7573
15386.0,7.8464,-17.249,-17.405,1.7573
15396.0,10.846,-17.249,-19.405,0.75725
15406.0,11.846,-15.249,-19.405,0.75725
15416.0,11.846,-15.249,-19.405,0.75725
15425.0,15.846,-14.249,-19.405,0.75725
15435.0,17.846,-12.249,-21.405,0.75725
15445.0,18.846,-10.249,-21.405,-0.24275
15455.0,18.846,-9.2491,-21.405,-0.24275
15465.0,18.846,-9.2491,-20.405,-0.24275
15475.0,16.846,-10.249,-22.405,-0.24275
15485.0,16.846,-10.249,-23.405,-1.2427
15495.0,10.846,-13.249,-21.405,-0.24275
15505.0,10.846,-13.249,-15.405,1.7573
15514.0,7.8464,-13.249,-12.405,4.7573
15524.0,7.8464,-13.249,-7.4046,6.7573
15534.0,6.8464,-14.249,-4.4046,10.757
15544.0,6.8464,-14.249,1.5954,12.757
15554.0,4.8464,-15.249,7.5954,14.757
15564.0,4.8464,-15.249,9.5954,15.757
15574.0,4.8464,-14.249,13.595,18.757
15584.0,4.8464,-14.249,15.595,17.757
15593.0,4.8464,-15.249,17.595,18.757
15603.0,4.8464,-15.249,15.595,17.757
15613.0,5.8464,-14.249,15.595,17.757
15623.0,6.8464,-14.249,11.595,14.757
15633.0,4.8464,-16.249,11.595,12.757
15643.0,5.8464,-15.249,7.5954,12.757
15653.0,7.8464,-15.249,5.5954,10.757
15663.0,7.8