t,carotid_880nm,carotid_660nm,brachial_880nm,brachial_660nm
3.3,-189.14,-86.554,309.99,157.69
13.2,-187.14,-84.554,314.99,159.69
23.1,-187.14,-84.554,316.99,160.69
33.0,-185.14,-82.554,319.99,161.69
42.9,-183.14,-81.554,323.99,164.69
52.8,-184.14,-81.554,325.99,164.69
62.7,-183.14,-80.554,327.99,164.69
72.5,-184.14,-79.554,326.99,164.69
82.4,-183.14,-80.554,323.99,163.69
92.3,-183.14,-76.554,316.99,160.69
102.2,-185.14,-76.554,307.99,156.69
112.1,-187.14,-77.554,298.99,153.69
122.0,-186.14,-76.554,287.99,147.69
131.8,-184.14,-75.554,277.99,143.69
141.7,-184.14,-75.554,269.99,140.69
151.6,-184.14,-75.554,261.99,137.69
161.5,-182.14,-72.554,253.99,133.69
171.4,-182.14,-72.554,252.99,132.69
181.3,-179.14,-71.554,247.99,131.69
191.2,-182.14,-72.554,246.99,130.69
201.1,-179.14,-69.554,243.99,129.69
210.9,-178.14,-70.554,238.99,126.69
220.8,-178.14,-68.554,230.99,124.69
230.7,-177.14,-68.554,225.99,120.69
240.6,-177.14,-67.554,223.99,119.69
250.5,-180.14,-68.554,220.99,119.69
260.4,-177.14,-69.554,218.99,119.69
270.2,-178.14,-66.554,216.99,118.69
280.1,-178.14,-66.554,217.99,117.69
290.0,-182.14,-66.554,213.99,118.69
299.9,-182.14,-66.554,213.99,117.69
309.8,-183.14,-67.554,211.99,118.69
319.7,-183.14,-67.554,209.99,118.69
329.6,-184.14,-67.554,211.99,118.69
339.4,-184.14,-67.554,210.99,118.69
349.3,-188.14,-68.554,206.99,119.69
359.2,-188.14,-68.554,204.99,118.69
369.1,-189.14,-69.554,202.99,120.69
379.0,-189.14,-69.554,202.99,120.69
388.9,-184.14,-66.554,200.99,120.69
398.8,-184.14,-66.554,200.99,120.69
408.6,-176.14,-61.554,196.99,120.69
418.5,-176.14,-61.554,191.99,119.69
428.4,-169.14,-57.554,189.99,118.69
438.3,-161.14,-55.554,190.99,119.69
448.2,-155.14,-53.554,195.99,123.69
458.1,-153.14,-53.554,204.99,127.69
468.0,-150.14,-50.554,211.99,131.69
477.8,-147.14,-49.554,219.99,136.69
487.7,-144.14,-47.554,227.99,139.69
497.6,-144.14,-47.554,233.99,144.69
507.5,-144.14,-46.554,238.99,146.69
517.4,-140.14,-47.554,242.99,148.69
527.3,-140.14,-45.554,243.99,149.69
537.2,-140.14,-43.554,242.99,151.69
547.0,-139.14,-43.554,240.99,153.69
556.9,-139.14,-43.554,238.99,153.69
566.8,-137.14,-42.554,233.99,151.69
576.7,-138.14,-42.554,226.99,149.69
586.6,-138.14,-43.554,216.99,146.69
596.5,-138.14,-41.554,209.99,142.69
606.4,-135.14,-39.554,204.99,141.69
616.2,-132.14,-35.554,196.99,137.69
626.1,-129.14,-34.554,187.99,135.69
636.0,-129.14,-33.554,180.99,132.69
645.9,-129.14,-33.554,169.99,130.69
655.8,-128.14,-31.554,166.99,128.69
665.7,-125.14,-29.554,160.99,127.69
675.6,-121.14,-27.554,160.99,127.69
685.4,-123.14,-27.554,150.99,125.69
695.3,-120.14,-25.554,150.99,125.69
705.2,-120.14,-25.554,143.99,121.69
715.1,-122.14,-24.554,143.99,121.69
725.0,-124.14,-24.554,143.99,124.69
734.9,-125.14,-24.554,143.99,124.69
744.8,-127.14,-23.554,139.99,123.69
754.6,-125.14,-23.554,139.99,123.69
764.5,-127.14,-22.554,135.99,123.69
774.4,-128.14,-22.554,135.99,123.69
784.3,-127.14,-21.554,130.99,124.69
794.2,-131.14,-22.554,130.99,124.69
804.1,-130.14,-21.554,121.99,119.69
814.0,-132.14,-22.554,121.99,119.69
823.8,-134.14,-22.554,111.99,116.69
833.7,-134.14,-23.554,111.99,116.69
843.6,-138.14,-23.554,103.99,112.69
853.5,-138.14,-23.554,103.99,112.69
863.4,-138.14,-25.554,91.989,108.69
873.3,-137.14,-23.554,91.989,108.69
883.2,-136.14,-22.554,75.989,100.69
893.0,-130.14,-19.554,75.989,100.69
902.9,-121.14,-14.554,66.989,95.689
912.8,-111.14,-10.554,57.989,90.689
922.7,-102.14,-6.5544,50.989,86.689
932.6,-98.136,-4.5544,42.989,83.689
942.5,-92.136,-3.5544,40.989,82.689
952.4,-90.136,-2.5544,43.989,83.689
962.2,-88.136,-2.5544,46.989,87.689
972.1,-86.136,-1.5544,52.989,87.689
982.0,-85.136,0.44556,59.989,92.689
991.9,-86.136,0.44556,67.989,95.689
1001.8,-83.136,1.4456,74.989,100.69
1011.7,-83.136,1.4456,81.989,104.69
1021.6,-83.136,1.4456,82.989,106.69
1031.4,-83.136,1.4456,92.989,108.69
1041.3,-86.136,0.44556,92.989,108.69
1051.2,-86.136,0.44556,95.989,111.69
1061.1,-92.136,-2.5544,96.989,112.69
1071.0,-92.136,-2.5544,97.989,113.69
1080.9,-94.136,-1.5544,96.989,114.69
1090.8,-94.136,-1.5544,95.989,115.69
1100.6,-90.136,-0.55444,96.989,117.69
1110.5,-90.136,-0.55444,96.989,117.69
1120.4,-89.136,1.4456,94.989,116.69
1130.3,-89.136,1.4456,89.989,114.69
1140.2,-85.136,2.4456,87.989,113.69
1150.1,-85.136,2.4456,82.989,112.69
1160.0,-82.136,3.4456,78.989,111.69
1169.8,-79.136,3.4456,76.989,108.69
1179.7,-79.136,6.4456,75.989,107.69
1189.6,-76.136,6.4456,72.989,108.69
1199.5,-77.136,8.4456,71.989,106.69
1209.4,-74.136,10.446,66.989,106.69
1219.3,-71.136,12.446,66.989,104.69
1229.2,-69.136,13.446,64.989,104.69
1239.0,-68.136,16.446,63.989,104.69
1248.9,-64.136,19.446,65.989,105.69
1258.8,-61.136,23.446,64.989,105.69
1268.7,-57.136,26.446,64.989,105.69
1278.6,-55.136,27.446,64.989,104.69
1288.5,-52.136,33.446,61.989,102.69
1298.4,-50.136,36.446,58.989,99.689
1308.2,-45.136,39.446,55.989,97.689
1318.1,-44.136,41.446,54.989,96.689
1328.0,-41.136,44.446,51.989,93.689
1337.9,-41.136,45.446,45.989,90.689
1347.8,-40.136,47.446,40.989,87.689
1357.7,-39.136,49.446,34.989,83.689
1367.6,-37.136,50.446,31.989,80.689
1377.4,-35.136,51.446,24.989,78.689
1387.3,-29.136,54.446,17.989,75.689
1397.2,-24.136,55.446,11.989,72.689
1407.1,-16.136,58.446,9.9891,70.689
1417.0,-7.136,62.446,5.9891,69.689
1426.9,-4.136,62.446,8.9891,70.689
1436.8,1.864,63.446,14.989,75.689
1446.6,2.864,62.446,24.989,78.689
1456.5,5.864,62.446,30.989,81.689
1466.4,7.864,62.446,36.989,85.689
1476.3,8.864,63.446,42.989,87.689
1486.2,8.864,60.446,46.989,89.689
1496.1,7.864,62.446,51.989,89.689
1506.0,8.864,62.446,53.989,92.689
1515.8,9.864,60.446,58.989,93.689
1525.7,7.864,59.446,59.989,92.689
1535.6,8.864,60.446,60.989,93.689
1545.5,2.864,60.446,60.989,92.689
1555.4,1.864,57.446,58.989,91.689
1565.3,-3.136,56.446,54.989,88.689
1575.2,-5.136,55.446,50.989,85.689
1585.0,-7.136,56.446,44.989,84.689
1594.9,-10.136,53.446,41.989,81.689
1604.8,-10.136,55.446,37.989,79.689
1614.7,-12.136,54.446,33.989,78.689
1624.6,-15.136,55.446,28.989,75.689
1634.5,-17.136,53.446,27.989,75.689
1644.4,-20.136,53.446,24.989,71.689
1654.2,-21.136,54.446,19.989,70.689
1664.1,-23.136,53.446,17.989,69.689
1674.0,-27.136,51.446,16.989,69.689
1683.9,-30.136,51.446,16.989,69.689
1693.8,-33.136,49.446,14.989,69.689
1703.7,-34.136,49.446,17.989,70.689
1713.6,-38.136,49.446,15.989,69.689
1723.4,-38.136,49.446,13.989,69.689
1733.3,-43.136,48.446,17.989,69.689
1743.2,-43.136,48.446,17.989,69.689
1753.1,-51.136,47.446,21.989,72.689
1763.0,-51.136,47.446,21.989,72.689
1772.9,-56.136,43.446,22.989,73.689
1782.8,-56.136,43.446,22.989,73.689
1792.6,-63.136,44.446,17.989,69.689
1802.5,-63.136,44.446,17.989,69.689
1812.4,-73.136,40.446,13.989,68.689
1822.3,-73.136,40.446,13.989,68.689
1832.2,-81.136,38.446,12.989,67.689
1842.1,-81.136,38.446,12.989,67.689
1852.0,-86.136,39.446,8.9891,66.689
1861.8,-86.136,39.446,8.9891,66.689
1871.7,-84.136,40.446,3.9891,63.689
1881.6,-83.136,42.446,3.9891,63.689
1891.5,-76.136,47.446,-0.010941,61.689
1901.4,-67.136,49.446,-0.010941,61.689
1911.3,-56.136,57.446,-0.010941,63.689
1921.2,-51.136,61.446,-0.010941,63.689
1931.0,-40.136,65.446,14.989,70.689
1940.9,-33.136,67.446,14.989,70.689
1950.8,-31.136,71.446,20.989,73.689
1960.7,-32.136,70.446,27.989,76.689
1970.6,-31.136,70.446,34.989,78.689
1980.5,-39.136,67.446,36.989,79.689
1990.4,-44.136,64.446,43.989,82.689
2000.2,-54.136,59.446,47.989,86.689
2010.1,-61.136,56.446,51.989,87.689
2020.0,-73.136,53.446,55.989,87.689
2029.9,-82.136,48.446,55.989,88.689
2039.8,-95.136,45.446,57.989,88.689
2049.7,-107.14,40.446,55.989,86.689
2059.6,-119.14,36.446,53.989,85.689
2069.4,-128.14,32.446,48.989,82.689
2079.3,-138.14,29.446,46.989,83.689
2089.2,-144.14,26.446,41.989,80.689
2099.1,-153.14,25.446,32.989,77.689
2109.0,-161.14,22.446,29.989,77.689
2118.9,-168.14,19.446,27.989,75.689
2128.8,-176.14,17.446,25.989,74.689
2138.6,-180.14,14.446,23.989,75.689
2148.5,-183.14,12.446,23.989,74.689
2158.4,-190.14,11.446,21.989,74.689
2168.3,-194.14,9.4456,20.989,74.689
2178.2,-199.14,4.4456,19.989,73.689
2188.1,-203.14,4.4456,19.989,74.689
2198.0,-208.14,3.4456,19.989,74.689
2207.8,-215.14,0.44556,20.989,74.689
2217.7,-221.14,-1.5544,20.989,75.689
2227.6,-228.14,-3.5544,18.989,76.689
2237.5,-231.14,-5.5544,18.989,76.689
2247.4,-237.14,-7.5544,20.989,77.689
2257.3,-241.14,-8.5544,21.989,77.689
2267.2,-247.14,-11.554,24.989,79.689
2277.0,-254.14,-14.554,24.989,79.689
2286.9,-264.14,-18.554,25.989,80.689
2296.8,-274.14,-22.554,24.989,80.689
2306.7,-286.14,-29.554,25.989,80.689
2316.6,-302.14,-37.554,27.989,81.689
2326.5,-316.14,-47.554,30.989,83.689
2336.4,-330.14,-54.554,35.989,85.689
2346.2,-346.14,-59.554,35.989,86.689
2356.1,-354.14,-66.554,38.989,87.689
2366.0,-358.14,-66.554,39.989,88.689
2375.9,-354.14,-63.554,43.989,89.689
2385.8,-343.14,-55.554,41.989,90.689
2395.7,-330.14,-48.554,44.989,89.689
2405.6,-319.14,-39.554,48.989,91.689
2415.4,-302.14,-29.554,56.989,96.689
2425.3,-281.14,-19.554,64.989,100.69
2435.2,-255.14,-4.5544,73.989,104.69
2445.1,-230.14,8.4456,78.989,106.69
2455.0,-230.14,8.4456,84.989,106.69
2464.9,-180.14,39.446,88.989,110.69
2474.8,-180.14,39.446,89.989,111.69
2484.6,-134.14,61.446,93.989,110.69
2494.5,-134.14,61.446,96.989,111.69
2504.4,-99.136,80.446,97.989,110.69
2514.3,-99.136,80.446,99.989,111.69
2524.2,-71.136,94.446,103.99,113.69
2534.1,-71.136,94.446,108.99,115.69
2544.0,-51.136,105.45,114.99,117.69
2553.8,-51.136,105.45,117.99,117.69
2563.7,-34.136,112.45,122.99,121.69
2573.6,-34.136,112.45,124.99,121.69
2583.5,-29.136,113.45,122.99,120.69
2593.4,-29.136,112.45,119.99,119.69
2603.3,-29.136,111.45,115.99,118.69
2613.2,-29.136,111.45,115.99,117.69
2623.0,-30.136,110.45,113.99,116.69
2632.9,-29.136,112.45,112.99,117.69
2642.8,-26.136,112.45,111.99,117.69
2652.7,-24.136,111.45,111.99,115.69
2662.6,-28.136,109.45,112.99,116.69
2672.5,-28.136,107.45,115.99,118.69
2682.3,-30.136,107.45,118.99,121.69
2692.2,-32.136,104.45,120.99,120.69
2702.1,-37.136,100.45,123.99,122.69
2712.0,-40.136,99.446,123.99,121.69
2721.9,-42.136,98.446,121.99,120.69
2731.8,-46.136,96.446,121.99,120.69
2741.7,-46.136,96.446,121.99,121.69
2751.6,-45.136,95.446,119.99,121.69
2761.4,-46.136,94.446,123.99,121.69
2771.3,-45.136,95.446,124.99,122.69
2781.2,-45.136,95.446,126.99,122.69
2791.1,-44.136,93.446,130.99,124.69
2801.0,-47.136,93.446,132.99,126.69
2810.9,-46.136,94.446,132.99,126.69
2820.7,-47.136,92.446,137.99,128.69
2830.6,-47.136,93.446,137.99,128.69
2840.5,-43.136,93.446,134.99,127.69
2850.4,-34.136,96.446,134.99,127.69
2860.3,-24.136,99.446,134.99,128.69
2870.2,-15.136,103.45,134.99,128.69
2880.1,-4.136,107.45,134.99,127.69
2889.9,-0.13604,107.45,134.99,127.69
2899.8,4.864,109.45,143.99,132.69
2909.7,9.864,108.45,143.99,132.69
2919.6,14.864,109.45,159.99,138.69
2929.5,15.864,111.45,159.99,138.69
2939.4,18.864,112.45,175.99,144.69
2949.3,21.864,114.45,175.99,144.69
2959.1,21.864,114.45,186.99,149.69
2969.0,24.864,112.45,186.99,149.69
2978.9,25.864,113.45,196.99,153.69
2988.8,26.864,114.45,196.99,153.69
2998.7,29.864,116.45,192.99,151.69
3008.6,28.864,114.45,192.99,151.69
3018.5,30.864,115.45,183.99,147.69
3028.3,31.864,118.45,183.99,147.69
3038.2,32.864,115.45,174.99,140.69
3048.1,33.864,117.45,174.99,140.69
3058.0,34.864,117.45,169.99,138.69
3067.9,35.864,118.45,162.99,136.69
3077.8,39.864,120.45,157.99,131.69
3087.7,39.864,119.45,151.99,128.69
3097.5,41.864,122.45,146.99,128.69
3107.4,43.864,121.45,143.99,125.69
3117.3,45.864,123.45,141.99,127.69
3127.2,48.864,124.45,141.99,125.69
3137.1,47.864,125.45,139.99,125.69
3147.0,51.864,128.45,138.99,125.69
3156.9,50.864,127.45,136.99,124.69
3166.7,50.864,127.45,134.99,123.69
3176.6,48.864,127.45,133.99,122.69
3186.5,48.864,127.45,132.99,120.69
3196.4,48.864,127.45,128.99,119.69
3206.3,48.864,127.45,124.99,118.69
3216.2,45.864,127.45,125.99,117.69
3226.1,45.864,127.45,124.99,118.69
3235.9,45.864,126.45,123.99,118.69
3245.8,45.864,126.45,123.99,116.69
3255.7,42.864,123.45,119.99,115.69
3265.6,42.864,123.45,115.99,114.69
3275.5,37.864,12