t,carotid_880nm,carotid_660nm,brachial_880nm,brachial_660nm
2.8,503.86,348.39,189.36,-68.01
12.7,498.86,346.39,182.36,-70.01
22.6,490.86,343.39,182.36,-70.01
32.4,483.86,339.39,176.36,-72.01
42.3,478.86,338.39,176.36,-72.01
52.2,471.86,337.39,166.36,-75.01
62.1,466.86,334.39,166.36,-75.01
72.0,464.86,333.39,161.36,-77.01
81.9,460.86,333.39,161.36,-77.01
91.7,456.86,332.39,152.36,-80.01
101.6,451.86,332.39,152.36,-80.01
111.5,449.86,333.39,149.36,-79.01
121.4,445.86,333.39,149.36,-79.01
131.3,452.86,334.39,144.36,-82.01
141.2,467.86,338.39,141.36,-83.01
151.1,488.86,346.39,138.36,-82.01
161.0,511.86,357.39,139.36,-82.01
170.8,528.86,361.39,147.36,-77.01
180.7,542.86,367.39,169.36,-69.01
190.6,554.86,368.39,188.36,-63.01
200.5,562.86,371.39,208.36,-56.01
210.4,570.86,376.39,225.36,-50.01
220.3,575.86,378.39,241.36,-45.01
230.1,582.86,380.39,252.36,-42.01
240.0,589.86,386.39,261.36,-37.01
249.9,593.86,387.39,269.36,-35.01
259.8,596.86,386.39,276.36,-34.01
269.7,595.86,385.39,279.36,-33.01
279.6,597.86,387.39,280.36,-32.01
289.5,599.86,388.39,281.36,-31.01
299.3,596.86,387.39,282.36,-31.01
309.2,593.86,385.39,280.36,-32.01
319.1,589.86,382.39,276.36,-33.01
329.0,588.86,383.39,271.36,-33.01
338.9,586.86,384.39,264.36,-36.01
348.8,587.86,384.39,259.36,-39.01
358.7,590.86,385.39,249.36,-43.01
368.5,592.86,386.39,243.36,-46.01
378.4,591.86,386.39,234.36,-49.01
388.3,591.86,389.39,229.36,-51.01
398.2,590.86,388.39,224.36,-52.01
408.1,591.86,388.39,222.36,-54.01
418.0,591.86,390.39,217.36,-54.01
427.9,590.86,389.39,215.36,-55.01
437.7,588.86,390.39,214.36,-55.01
447.6,587.86,390.39,213.36,-54.01
457.5,587.86,390.39,213.36,-55.01
467.4,585.86,391.39,208.36,-55.01
477.3,582.86,393.39,205.36,-56.01
487.2,580.86,392.39,202.36,-57.01
497.1,578.86,393.39,197.36,-58.01
506.9,576.86,392.39,195.36,-60.01
516.8,572.86,393.39,192.36,-61.01
526.7,570.86,392.39,189.36,-62.01
536.6,566.86,391.39,186.36,-62.01
546.5,561.86,390.39,180.36,-64.01
556.4,555.86,388.39,177.36,-65.01
566.3,549.86,386.39,173.36,-68.01
576.1,544.86,385.39,169.36,-69.01
586.0,539.86,384.39,166.36,-69.01
595.9,539.86,384.39,161.36,-70.01
605.8,530.86,383.39,158.36,-72.01
615.7,530.86,383.39,156.36,-73.01
625.6,522.86,382.39,151.36,-73.01
635.5,522.86,382.39,149.36,-73.01
645.3,514.86,380.39,146.36,-74.01
655.2,514.86,380.39,141.36,-76.01
665.1,518.86,383.39,140.36,-77.01
675.0,518.86,383.39,134.36,-77.01
684.9,550.86,393.39,133.36,-77.01
694.8,550.86,393.39,133.36,-77.01
704.7,586.86,407.39,144.36,-73.01
714.5,586.86,407.39,163.36,-65.01
724.4,597.86,411.39,183.36,-59.01
734.3,606.86,411.39,203.36,-51.01
744.2,613.86,416.39,227.36,-42.01
754.1,624.86,418.39,245.36,-36.01
764.0,626.86,421.39,260.36,-31.01
773.9,634.86,423.39,269.36,-28.01
783.7,638.86,426.39,278.36,-26.01
793.6,643.86,428.39,283.36,-24.01
803.5,645.86,431.39,286.36,-23.01
813.4,647.86,431.39,288.36,-24.01
823.3,648.86,431.39,285.36,-25.01
833.2,647.86,430.39,280.36,-27.01
843.1,645.86,429.39,276.36,-28.01
852.9,641.86,427.39,272.36,-30.01
862.8,635.86,424.39,265.36,-32.01
872.7,632.86,424.39,258.36,-35.01
882.6,628.86,423.39,249.36,-40.01
892.5,623.86,421.39,241.36,-43.01
902.4,621.86,418.39,235.36,-45.01
912.3,620.86,418.39,227.36,-47.01
922.1,616.86,416.39,224.36,-49.01
932.0,612.86,416.39,219.36,-51.01
941.9,612.86,415.39,215.36,-51.01
951.8,607.86,412.39,212.36,-53.01
961.7,605.86,411.39,209.36,-52.01
971.6,603.86,410.39,209.36,-52.01
981.5,601.86,410.39,207.36,-54.01
991.3,598.86,408.39,207.36,-54.01
1001.2,599.86,409.39,204.36,-54.01
1011.1,596.86,408.39,204.36,-54.01
1021.0,595.86,409.39,199.36,-53.01
1030.9,592.86,405.39,199.36,-53.01
1040.8,590.86,407.39,196.36,-54.01
1050.7,589.86,408.39,196.36,-54.01
1060.5,587.86,406.39,189.36,-58.01
1070.4,586.86,407.39,189.36,-58.01
1080.3,584.86,407.39,183.36,-58.01
1090.2,582.86,405.39,183.36,-58.01
1100.1,581.86,406.39,178.36,-61.01
1110.0,578.86,407.39,178.36,-61.01
1119.9,577.86,408.39,174.36,-61.01
1129.7,576.86,408.39,174.36,-61.01
1139.6,575.86,406.39,171.36,-62.01
1149.5,572.86,409.39,171.36,-62.01
1159.4,570.86,410.39,170.36,-61.01
1169.3,571.86,409.39,170.36,-61.01
1179.2,567.86,410.39,164.36,-62.01
1189.1,568.86,412.39,164.36,-62.01
1198.9,570.86,414.39,159.36,-63.01
1208.8,577.86,417.39,159.36,-63.01
1218.7,594.86,422.39,156.36,-62.01
1228.6,610.86,430.39,157.36,-62.01
1238.5,629.86,435.39,153.36,-63.01
1248.4,650.86,443.39,155.36,-60.01
1258.3,668.86,449.39,173.36,-53.01
1268.1,679.86,453.39,192.36,-47.01
1278.0,688.86,455.39,212.36,-39.01
1287.9,696.86,456.39,232.36,-32.01
1297.8,703.86,459.39,254.36,-26.01
1307.7,703.86,459.39,266.36,-21.01
1317.6,715.86,464.39,277.36,-18.01
1327.5,715.86,464.39,282.36,-16.01
1337.3,724.86,467.39,286.36,-16.01
1347.2,724.86,467.39,289.36,-15.01
1357.1,733.86,469.39,290.36,-15.01
1367.0,733.86,469.39,288.36,-14.01
1376.9,735.86,470.39,287.36,-15.01
1386.8,735.86,470.39,283.36,-16.01
1396.7,733.86,471.39,276.36,-19.01
1406.5,733.86,471.39,267.36,-22.01
1416.4,733.86,474.39,258.36,-25.01
1426.3,733.86,474.39,250.36,-29.01
1436.2,733.86,473.39,239.36,-33.01
1446.1,734.86,474.39,231.36,-34.01
1456.0,736.86,473.39,225.36,-39.01
1465.9,737.86,475.39,221.36,-39.01
1475.7,736.86,475.39,218.36,-39.01
1485.6,736.86,475.39,216.36,-39.01
1495.5,739.86,477.39,215.36,-40.01
1505.4,739.86,478.39,214.36,-38.01
1515.3,740.86,478.39,212.36,-40.01
1525.2,739.86,480.39,212.36,-38.01
1535.1,735.86,478.39,214.36,-38.01
1544.9,731.86,478.39,210.36,-40.01
1554.8,727.86,478.39,211.36,-37.01
1564.7,721.86,475.39,211.36,-37.01
1574.6,716.86,474.39,214.36,-38.01
1584.5,706.86,469.39,211.36,-38.01
1594.4,701.86,468.39,208.36,-39.01
1604.3,693.86,465.39,203.36,-40.01
1614.1,683.86,461.39,199.36,-43.01
1624.0,674.86,458.39,195.36,-44.01
1633.9,665.86,455.39,188.36,-48.01
1643.8,655.86,451.39,181.36,-51.01
1653.7,645.86,448.39,174.36,-54.01
1663.6,636.86,443.39,165.36,-59.01
1673.5,623.86,439.39,153.36,-64.01
1683.3,611.86,435.39,141.36,-69.01
1693.2,599.86,429.39,128.36,-76.01
1703.1,589.86,424.39,116.36,-83.01
1713.0,577.86,421.39,104.36,-90.01
1722.9,568.86,417.39,86.364,-101.01
1732.8,556.86,413.39,72.364,-109.01
1742.7,547.86,409.39,57.364,-118.01
1752.5,539.86,407.39,43.364,-125.01
1762.4,541.86,409.39,29.364,-132.01
1772.3,555.86,413.39,18.364,-138.01
1782.2,567.86,417.39,7.3639,-143.01
1792.1,581.86,420.39,0.36394,-147.01
1802.0,592.86,422.39,4.3639,-144.01
1811.9,601.86,422.39,17.364,-140.01
1821.7,608.86,424.39,34.364,-136.01
1831.6,611.86,425.39,51.364,-128.01
1841.5,613.86,424.39,70.364,-123.01
1851.4,612.86,424.39,84.364,-118.01
1861.3,611.86,423.39,93.364,-113.01
1871.2,609.86,422.39,103.36,-110.01
1881.1,604.86,418.39,109.36,-106.01
1890.9,601.86,418.39,112.36,-105.01
1900.8,599.86,415.39,115.36,-104.01
1910.7,594.86,413.39,116.36,-102.01
1920.6,590.86,411.39,115.36,-101.01
1930.5,584.86,410.39,116.36,-99.01
1940.4,577.86,404.39,115.36,-98.01
1950.3,572.86,404.39,111.36,-99.01
1960.1,566.86,402.39,103.36,-101.01
1970.0,564.86,399.39,95.364,-104.01
1979.9,559.86,398.39,85.364,-111.01
1989.8,555.86,397.39,68.364,-120.01
1999.7,552.86,395.39,49.364,-131.01
2009.6,549.86,393.39,29.364,-141.01
2019.5,549.86,393.39,10.364,-152.01
2029.3,544.86,390.39,-8.6361,-166.01
2039.2,544.86,390.39,-8.6361,-166.01
2049.1,539.86,387.39,-35.636,-182.01
2059.0,539.86,387.39,-35.636,-182.01
2068.9,529.86,383.39,-63.636,-202.01
2078.8,529.86,383.39,-63.636,-202.01
2088.7,517.86,378.39,-91.636,-220.01
2098.5,517.86,378.39,-91.636,-220.01
2108.4,508.86,373.39,-113.64,-235.01
2118.3,508.86,373.39,-113.64,-235.01
2128.2,496.86,369.39,-133.64,-245.01
2138.1,496.86,369.39,-133.64,-245.01
2148.0,491.86,367.39,-143.64,-250.01
2157.9,485.86,365.39,-143.64,-250.01
2167.7,479.86,362.39,-153.64,-252.01
2177.6,473.86,361.39,-153.64,-252.01
2187.5,468.86,358.39,-150.64,-249.01
2197.4,460.86,355.39,-150.64,-249.01
2207.3,454.86,352.39,-147.64,-247.01
2217.2,445.86,349.39,-147.64,-247.01
2227.1,439.86,346.39,-158.64,-250.01
2236.9,430.86,344.39,-158.64,-250.01
2246.8,424.86,340.39,-164.64,-253.01
2256.7,416.86,339.39,-168.64,-255.01
2266.6,407.86,336.39,-176.64,-255.01
2276.5,398.86,332.39,-180.64,-257.01
2286.4,388.86,327.39,-186.64,-260.01
2296.3,380.86,325.39,-192.64,-262.01
2306.1,378.86,324.39,-201.64,-266.01
2316.0,386.86,329.39,-209.64,-272.01
2325.9,402.86,332.39,-216.64,-275.01
2335.8,419.86,339.39,-227.64,-283.01
2345.7,435.86,346.39,-237.64,-287.01
2355.6,447.86,349.39,-240.64,-291.01
2365.5,457.86,352.39,-229.64,-287.01
2375.3,463.86,352.39,-216.64,-287.01
2385.2,466.86,353.39,-207.64,-287.01
2395.1,467.86,353.39,-198.64,-286.01
2405.0,466.86,352.39,-190.64,-283.01
2414.9,464.86,351.39,-180.64,-282.01
2424.8,461.86,348.39,-172.64,-279.01
2434.7,456.86,347.39,-162.64,-276.01
2444.5,454.86,345.39,-152.64,-272.01
2454.4,448.86,340.39,-142.64,-267.01
2464.3,443.86,340.39,-134.64,-263.01
2474.2,436.86,337.39,-129.64,-259.01
2484.1,426.86,334.39,-128.64,-258.01
2494.0,420.86,330.39,-132.64,-258.01
2503.9,413.86,329.39,-134.64,-258.01
2513.7,409.86,327.39,-136.64,-256.01
2523.6,405.86,325.39,-138.64,-257.01
2533.5,403.86,324.39,-141.64,-256.01
2543.4,400.86,323.39,-145.64,-256.01
2553.3,394.86,320.39,-145.64,-253.01
2563.2,394.86,320.39,-143.64,-250.01
2573.1,389.86,319.39,-140.64,-247.01
2582.9,387.86,317.39,-135.64,-240.01
2592.8,384.86,316.39,-127.64,-234.01
2602.7,379.86,314.39,-122.64,-228.01
2612.6,372.86,313.39,-108.64,-219.01
2622.5,367.86,309.39,-99.636,-210.01
2632.4,362.86,306.39,-87.636,-200.01
2642.2,354.86,305.39,-73.636,-191.01
2652.1,348.86,302.39,-60.636,-180.01
2662.0,342.86,298.39,-48.636,-172.01
2671.9,334.86,296.39,-37.636,-163.01
2681.8,328.86,294.39,-29.636,-155.01
2691.7,320.86,291.39,-21.636,-148.01
2701.6,316.86,289.39,-9.6361,-140.01
2711.5,310.86,285.39,-1.6361,-134.01
2721.3,305.86,284.39,2.3639,-129.01
2731.2,305.86,284.39,8.3639,-123.01
2741.1,290.86,278.39,13.364,-117.01
2751.0,290.86,278.39,17.364,-115.01
2760.9,278.86,272.39,20.364,-109.01
2770.8,278.86,272.39,25.364,-106.01
2780.6,263.86,265.39,23.364,-104.01
2790.5,263.86,265.39,21.364,-106.01
2800.4,251.86,260.39,16.364,-108.01
2810.3,251.86,260.39,7.3639,-111.01
2820.2,240.86,256.39,-0.63606,-116.01
2830.1,240.86,256.39,-10.636,-121.01
2840.0,248.86,258.39,-12.636,-123.01
2849.8,248.86,258.39,-11.636,-120.01
2859.7,269.86,263.39,-12.636,-119.01
2869.6,293.86,272.39,-13.636,-120.01
2879.5,313.86,279.39,-12.636,-119.01
2889.4,329.86,282.39,4.3639,-111.01
2899.3,339.86,285.39,29.364,-102.01
2909.2,349.86,286.39,53.364,-92.01
2919.0,352.86,287.39,73.364,-84.01
2928.9,357.86,286.39,91.364,-75.01
2938.8,362.86,288.39,108.36,-70.01
2948.7,366.86,288.39,121.36,-63.01
2958.6,370.86,290.39,139.36,-55.01
2968.5,377.86,291.39,154.36,-47.01
2978.4,380.86,292.39,169.36,-39.01
2988.2,384.86,294.39,180.36,-32.01
2998.1,389.86,298.39,189.36,-26.01
3008.0,392.86,299.39,197.36,-23.01
3017.9,395.86,300.39,204.36,-18.01
3027.8,393.86,300.39,207.36,-15.01
3037.7,393.86,298.39,213.36,-13.01
3047.6,396.86,300.39,213.36,-10.01
3057.4,400.86,303.39,212.36,-10.01
3067.3,404.86,305.39,218.36,-5.0105
3077.2,407.86,307.39,228.36,0.98952
3087.1,411.86,310.39,243.36,9.9895
3097.0,413.86,307.39,258.36,18.99
3106.9,418.86,309.39,258.36,18.99
3116.8,421.86,310.39,290.36,37.99
3126.6,423.86,311.39,290.36,37.99
3136.5,422.86,311.39,311.36,49.99
3146.4,426.86,310.39,311.36,49.99
3156.3,427.86,309.39,319.36,56.99
3166.2,426.86,309.39,319.36,56.99
3176.1,425.86,308.39,316.36,54.99
3186.0,427.86,309.39,316.36,54.99
3195.8,427.86,309.39,313.36,51.99
3205.7,424.86,308.39,313.36,51.99
3215.6,424.86,307.39,307.36,48.99
3225.5,422.86,306.39,307.36,48.99
3235.4,420.86,306.39,294.36,44.99
3245.3,420.86,304.39,294.36,44.99
3255.2,419.86,303.39,280.36,38.99
3265.0,414.86,302.39,280.36,38.99
3274.9,412.86,302.39,265.36,33.99
3284.8,408.86,299.39,265.36,33.99
3294.7,404.86,298.39,251.36,26.99
3304.6,400.86,296.39,251.36,26.99
3314.5,398.86,293.39,221.36,13.99
3324.4,395.86,294.39,221.36,13.99
3334.2,392.86,293.39,187.36,-7.0105
3344.1,388.86,293.39,187.36,-7.0105
3354.0,386.86,293.39,171.36,-16.01
3363.9,392.86,294.39,154.36,-26.01
3373.8,409.86,302.39,142.36,-32.01
3383.7,428.86,306.39,131.36,-38.01
3393.6,450.86,314.39,123.36,-40.01
3403.4,474.86,323.39,115.36,-44.01
3413.3,487.86,329.39,118.36,-42.01
3423.2,501.86,333.39,135.36,-37.01
3433.1,513.86,337.39,151.36,-31.01
3443.0,513.86,337.39,172.36,-23.01
3452.9,529.86,341.39,194.36,-16.01
3462.8,529.86,341.39,212.36,-9.0105
3472.6,542.86,350.39,227.36,-3.0105
3482.5,542.86,350.39,240.36,2.9895
3492.4,554.86,352.39,252.36,8.9895
3502.3,554.86,352.39,264.36,13.99
3512.2,562.86,356.39,271.36,16.99
3522.1,562.86,356.39,277.36,18.99
3532.0,567.86,357.39,281.36,20.99
3541.8,567.86,357.39,281.36,21.99
3551.7,565.86,356.39,280.36,20.99
3561.6,565.86,356.39,275.36,18.99
3571.5,563.86,357.39,268.36,15.99
3581.4,563.86,357.39,264.36,15.99
3591.3,560.86,356.39,257.36,12.99
3601.2,560.86,355.39,253.36,13.99
3611.0,560.86,357.39,246.36,9.9895
3620.9,560.86,357.39,240.36,7.9895
3630.8,558.86,356.39,237.36,5.9895
3640.7,559.86,354.39,233.36,5.9895
3650.6,558.86,355.39,230.36,5.9895
3660.5,561.86,355.39,229.36,4.9895
3670.4,561.86,357.39,231.36,4.9895
3680.2,561.86,358.39,234.36,7.9895
3690.1,559.86,357.39,235.36,9.9895
3700.0,556.86,357.39,235.36,10.99
3709.9,553.86,355.39,232.36,10.99
3719.8,552.86,357.39,231.36,9.9895
3729.7,553.86,357.39,229.36,9.9895
3739.6,549.86,356.39,230.36,9.9895
3749.4,549.86,354.39,228.36,10.99
3759.3,546.86,355.39,227.36,9.9895
3769.2,545.86,356.39,226.36,10.99
3779.1,545.86,358.39,226.36,9.9895
3789.0,542.86,357.39,225.36,10.99
3798.9,538.86,358.39,221.36,8.9895
3808.8,536.86,357.39,222.36,9.9895
3818.6,533.86,356.39,219.36,9.9895
3828.5,528.86,355.39,217.36,8.9895
3838.4,521.86,352.39,218.36,8.9895
3848.3,519.86,353.39,216.36,9.9895
3858.2,512.86,351.39,218.36,11.99
3868.1,510.86,351.39,216.36,10.99
3878.0,505.86,348.39,219.36,12.99
3887.8,499.86,349.39,216.36,12.99
3897.7,502.86,351.39,215.36,11.99
3907.6,511.86,353.39,212.36,10.99
3917.5,528.86,358.39,212.36,12.99
3927.4,544.86,364.39,214.36,13.99
3937.3,565.86,373.39,224.36,17.99
3947.2,583.86,378.39,250.36,28.99
3957.0,591.86,383.39,273.36,37.99
3966.9,601.86,385.39,299.36,48.99
3976.8,611.86,389.39,321.36,56.99
3986.7,618.86,390.39,341.36,61.99
3996.6,624.86,394.39,354.36,67.99
4006.5,630.86,397.39,362.36,69.99
4016.4,637.86,399.39,368.36,70.99
4026.2,642.86,401.39,373.36,70.99
4036.1,644.86,403.39,376.36,71.99
4046.0,646.86,404.39,376.36,72.99
4055.9,651.86,406.39,377.36,72.99
4065.8,653.86,405.39,373.36,70.99
4075.7,649.86,406.39,370.36,69.99
4085.6,647.86,407.39,362.36,67.99
4095.4,645.86,406.39,353.36,62.99
4105.3,642.86,406.39,344.36,58.99
4115.2,640.86,404.39,334.36,55.99
4125.1,636.86,405.39,324.36,50.99
4135.0,637.86,404.39,314.36,46.99
4144.9,636.86,403.39,302.36,43.99
4154.8,636.86,403.39,292.36,39.99
4164.6,635.86,405.39,282.36,35.99
4174.5,635.86,405.39,282.36,35.99
4184.4,634.86,405.39,265.36,27.99
4194.3,634.86,405.39,265.36,27.99
4204.2,630.86,405.39,254.36,24.99
4214.1,630.86,405.39,254.36,24.99
4224.0,622.86,402.39,244.36,21.99
4233.8,622.86,402.39,244.36,21.99
4243.7,619.86,403.39,237.36,20.99
4253.6,619.86,403.39,237.36,20.99
4263.5,613.86,402.39,233.36,19.99
4273.4,613.86,402.39,233.36,19.99
4283.3,603.86,401.39,224.36,17.99
4293.2,603.86,401.39,224.36,17.99
4303.0,604.86,401.39,219.36,15.99
4312.9,601.86,400.39,219.36,15.99
4322.8,599.86,400.39,205.36,11.99
4332.7,597.86,400.39,205.36,11.99
4342.6,594.86,400.39,198.36,7.9895
4352.5,592.86,401.39,198.36,7.9895
4362.4,589.86,400.39,186.36,4.9895
4372.2,587.86,400.39,186.36,4.9895
4382.1,584.86,400.39,180.36,2.9895
4392.0,580.86,399.39,175.36,0.98952
4401.9,576.86,400.39,173.36,-0.010479
4411.8,571.86,398.39,165.36,-2.0105
4421.7,567.86,397.39,162.36,-3.0105
4431.6,561.86,397.39,155.36,-5.0105
4441.4,561.86,397.39,152.36,-5.0105
4451.3,567.86,398.39,151.36,-7.0105
4461.2,578.86,402.39,147.36,-7.0105
4471.1,593.86,407.39,144.36,-9.0105
4481.0,610.86,411.39,144.36,-7.0105
4490.9,624.86,418.39,159.36,-1.0105
4500.8,638.86,421.39,176.36,6.9895
4510.6,643.86,423.39,195.36,11.99
4520.5,649.86,425.39,215.36,18.99
4530.4,652.86,425.39,234.36,25.99
4540.3,656.86,427.39,251.36,32.99
4550.2,659.86,428.39,262.36,36.99
4560.1,661.86,429.39,271.36,37.99
4570.0,666.86,430.39,276.36,41.99
4579.8,666.86,431.39,281.36,41.99
4589.7,667.86,431.39,283.36,43.99
4599.6,669.86,430.39,286.36,46.99
4609.5,666.86,429.39,290.36,46.99
4619.4,665.86,430.39,290.36,48.99
4629.3,661.86,428.39,293.36,49.99
4639.2,659.86,427.39,289.36,48.99
4649.0,657.86,427.39,283.36,46.99
4658.9,653.86,426.39,276.36,43.99
4668.8,651.86,427.39,269.36,41.99
4678.7,651.86,428.39,261.36,36.99
4688.6,651.86,427.39,253.36,33.99
4698.5,651.86,426.39,246.36,31.99
4708.4,651.86,426.39,241.36,28.99
4718.2,650.86,425.39,237.36,25.99
4728.1,648.86,426.39,232.36,22.99
4738.0,648.86,425.39,229.36,22.99
4747.9,648.86,426.39,227.36,22.99
4757.8,646.86,424.39,222.36,20.99
4767.7,643.86,425.39,220.36,19.99
4777.6,639.86,424.39,216.36,21.99
4787.4,636.86,422.39,213.36,18.99
4797.3,633.86,421.39,211.36,17.99
4807.2,626.86,420.39,208.36,16.99
4817.1,625.86,418.39,202.36,14.99
4827.0,620.86,418.39,197.36,11.99
4836.9,615.86,416.39,188.36,8.9895
4846.8,607.86,415.39,182.36,4.9895
4856.6,605.86,414.39,174.36,2.9895
4866.5,605.86,414.39,168.36,0.98952
4876.4,590.86,409.39,159.36,-3.0105
4886.3,590.86,409.39,153.36,-6.0105
4896.2,577.86,407.39,147.36,-8.0105
4906.1,577.86,407.39,141.36,-10.01
4916.0,564.86,403.39,134.36,-11.01
4925.8,564.86,403.39,127.36,-14.01
4935.7,550.86,399.39,122.36,-16.01
4945.6,550.86,399.39,120.36,-17.01
4955.5,537.86,396.39,115.36,-19.01
4965.4,537.86,396.39,109.36,-22.01
4975.3,522.86,393.39,104.36,-25.01
4985.2,522.86,393.39,96.364,-27.01
4995.0,526.86,396.39,91.364,-29.01
5004.9,526.86,396.39,89.364,-29.01
5014.8,538.86,400.39,84.364,-32.01
5024.7,549.86,403.39,82.364,-30.01
5034.6,564.86,408.39,89.364,-29.01
5044.5,573.86,414.39,101.36,-23.01
5054.4,580.86,416.39,120.36,-16.01
5064.2,587.86,417.39,135.36,-13.01
5074.1,587.86,417.39,149.36,-6.0105
5084.0,591.86,416.39,157.36,-5.0105
5093.9,589.86,417.39,162.36,-5.0105
5103.8,589.86,416.39,157.36,-10.01
5113.7,586.86,416.39,148.36,-19.01
5123.6,584.86,415.39,129.36,-32.01
5133.4,580.86,413.39,101.36,-56.01
5143.3,578.86,410.39,57.364,-89.01
5153.2,573.86,409.39,2.3639,-127.01
5163.1,569.86,406.39,-45.636,-157.01
5173.0,561.86,402.39,-77.636,-179.01
5182.9,551.86,400.39,-99.636,-193.01
5192.7,547.86,398.39,-124.64,-212.01
5202.6,541.86,395.39,-159.64,-233.01
5212.5,537.86,394.39,-198.64,-259.01
5222.4,534.86,392.39,-235.64,-282.01
5232.3,528.86,390.39,-268.64,-304.01
5242.2,527.86,390.39,-268.64,-304.01
5252.1,521.86,386.39,-316.64,-334.01
5262.0,517.86,385.39,-316.64,-334.01
5271.8,514.86,385.39,-348.64,-353.01
5281.7,506.86,380.39,-348.64,-353.01
5291.6,500.86,379.39,-367.64,-361.01
5301.5,493.86,375.39,-367.64,-361.01
5311.4,486.86,372.39,-369.64,-362.01
5321.3,483.86,369.39,-369.64,-362.01
5331.1,475.86,367.39,-366.64,-357.01
5341.0,468.86,364.39,-366.64,-357.01
5350.9,459.86,361.39,-359.64,-350.01
5360.8,453.86,356.39,-359.64,-350.01
5370.7,444.86,355.39,-347.64,-341.01
5380.6,438.86,352.39,-347.64,-341.01
5390.5,433.86,349.39,-330.64,-328.01
5400.3,427.86,347.39,-330.64,-328.01
5410.2,421.86,345.39,-312.64,-314.01
5420.1,413.86,341.39,-312.64,-314.01
5430.0,406.86,339.39,-303.64,-307.01
5439.9,400.86,336.39,-303.64,-307.01
5449.8,392.86,332.39,-304.64,-305.01
5459.7,386.86,331.39,-304.64,-305.01
5469.5,379.86,328.39,-306.64,-304.01
5479.4,370.86,326.39,-304.64,-302.01
5489.3,360.86,320.39,-301.64,-298.01
5499.2,352.86,318.39,-298.64,-295.01
5509.1,342.86,314.39,-296.64,-292.01
5519.0,333.86,312.39,-294.64,-290.01
5528.9,329.86,310.39,-294.64,-287.01
5538.7,325.86,308.39,-296.64,-286.01
5548.6,332.86,312.39,-298.64,-285.01
5558.5,352.86,318.39,-300.64,-285.01
5568.4,369.86,324.39,-302.64,-284.01
5578.3,369.86,324.39,-303.64,-285.01
5588.2,398.86,336.39,-307.64,-285.01
5598.1,398.86,336.39,-299.64,-283.01
5607.9,418.86,340.39,-280.64,-277.01
5617.8,418.86,340.39,-267.64,-275.01
5627.7,424.86,341.39,-257.64,-271.01
5637.6,424.86,341.39,-254.64,-274.01
5647.5,426.86,342.39,-256.64,-277.01
5657.4,426.86,342.39,-265.64,-282.01
5667.3,422.86,340.39,-277.64,-288.01
5677.1,422.86,340.39,-286.64,-293.01
5687.0,419.86,339.39,-299.64,-302.01
5696.9,419.86,339.39,-315.64,-309.01
5706.8,409.86,336.39,-335.64,-319.01
5716.7,409.86,336.39,-354.64,-329.01
5726.6,405.86,332.39,-372.64,-338.01
5736.5,400.86,331.39,-387.64,-346.01
5746.3,396.86,330.39,-406.64,-354.01
5756.2,392.86,326.39,-422.64,-359.01
5766.1,390.86,329.39,-438.64,-367.01
5776.0,388.86,327.39,-452.64,-371.01
5785.9,388.86,326.39,-465.64,-375.01
5795.8,385.86,326.39,-471.64,-377.01
5805.7,386.86,325.39,-481.64,-380.01
5815.5,385.86,326.39,-486.64,-383.01
5825.4,383.86,325.39,-491.64,-384.01
5835.3,383.86,325.39,-488.64,-383.01
5845.2,382.86,325.39,-489.64,-382.01
5855.1,379.86,325.39,-488.64,-383.01
5865.0,376.86,325.39,-491.64,-385.01
5874.9,372.86,322.39,-495.64,-386.01
5884.7,368.86,321.39,-495.64,-388.01
5894.6,366.86,321.39,-498.64,-389.01
5904.5,359.86,318.39,-500.64,-390.01
5914.4,356.86,317.39,-501.64,-394.01
5924.3,348.86,316.39,-504.64,-394.01
5934.2,346.86,315.39,-506.64,-397.01
5944.1,338.86,312.39,-505.64,-395.01
5953.9,333.86,310.39,-507.64,-395.01
5963.8,328.86,308.39,-506.64,-395.01
5973.7,322.86,306.39,-507.64,-396.01
5983.6,317.86,304.39,-505.64,-393.01
5993.5,311.86,301.39,-503.64,-392.01
6003.4,305.86,299.39,-507.64,-395.01
6013.3,300.86,296.39,-514.64,-399.01
6023.1,292.86,292.39,-523.64,-401.01
6033.0,286.86,289.39,-530.64,-406.01
6042.9,278.86,288.39,-539.64,-409.01
6052.8,275.86,285.39,-543.64,-411.01
6062.7,268.86,284.39,-547.64,-414.01
6072.6,263.86,280.39,-556.64,-417.01
6082.5,267.86,283.39,-561.64,-420.01
6092.3,284.86,288.39,-565.64,-421.01
6102.2,310.86,296.39,-565.64,-422.01
6112.1,331.86,304.39,-565.64,-420.01
6122.0,351.86,311.39,-564.64,-419.01
6131.9,367.86,314.39,-539.64,-409.01
6141.8,377.86,316.39,-511.64,-398.01
6151.7,386.86,316.39,-486.64,-387.01
6161.5,391.86,317.39,-455.64,-375.01
6171.4,396.86,319.39,-427.64,-362.01
6181.3,400.86,319.39,-400.64,-352.01
6191.2,404.86,319.39,-371.64,-336.01
6201.1,408.86,320.39,-341.64,-321.01
6211.0,408.86,321.39,-310.64,-306.01
6220.9,411.86,321.39,-280.64,-287.01
6230.7,414.86,322.39,-250.64,-268.01
6240.6,418.86,321.39,-220.64,-250.01
6250.5,416.86,323.39,-192.64,-232.01
6260.4,415.86,320.39,-165.64,-214.01
6270.3,414.86,320.39,-142.64,-199.01
6280.2,412.86,319.39,-119.64,-183.01
6290.1,412.86,319.39,-102.64,-168.01
6299.9,413.86,320.39,-83.636,-155.01
6309.8,413.86,320.39,-83.636,-155.01
6319.7,411.86,318.39,-49.636,-128.01
6329.6,411.86,318.39,-49.636,-128.01
6339.5,406.86,313.39,-23.636,-107.01
6349.4,406.86,313.39,-23.636,-107.01
6359.3,407.86,309.39,9.3639,-82.01
6369.1,407.86,309.39,9.3639,-82.01
6379.0,404.86,305.39,40.364,-61.01
6388.9,404.86,305.39,40.364,-61.01
6398.8,404.86,302.39,62.364,-45.01
6408.7,404.86,302.39,62.364,-45.01
6418.6,406.86,302.39,77.364,-30.01
6428.5,406.86,302.39,77.364,-30.01
6438.3,408.86,301.39,92.364,-20.01
6448.2,410.86,300.39,92.364,-20.01
6458.1,409.86,302.39,104.36,-13.01
6468.0,411.86,301.39,104.36,-13.01
6477.9,413.86,304.39,110.36,-6.0105
6487.8,412.86,302.39,110.36,-6.0105
6497.7,408.86,303.39,116.36,-3.0105
6507.5,407.86,299.39,116.36,-3.0105
6517.4,407.86,300.39,117.36,-0.010479
6527.3,405.86,299.39,118.36,1.9895
6537.2,400.86,297.39,121.36,4.9895
6547.1,395.86,298.39,122.36,4.9895
6557.0,393.86,295.39,123.36,6.9895
6566.9,387.86,294.39,123.36,6.9895
6576.7,385.86,292.39,122.36,8.9895
6586.6,378.86,290.39,121.36,8.9895
6596.5,375.86,289.39,121.36,8.9895
6606.4,372.86,289.39,117.36,8.9895
6616.3,377.86,290.39,114.36,7.9895
6626.2,392.86,294.39,111.36,7.9895
6636.1,412.86,300.39,111.36,9.9895
6645.9,433.86,309.39,111.36,9.9895
6655.8,450.86,313.39,117.36,11.99
6665.7,462.86,317.39,137.36,19.99
6675.6,473.86,318.39,156.36,26.99
6685.5,481.86,322.39,176.36,34.99
6695.4,488.86,322.39,192.36,38.99
6705.3,495.86,325.39,209.36,45.99
6715.1,500.86,328.39,221.36,50.99
6725.0,507.86,331.39,233.36,51.99
6734.9,511.86,332.39,243.36,55.99
6744.8,516.86,334.39,249.36,58.99
6754.7,520.86,334.39,257.36,60.99
6764.6,522.86,337.39,258.36,61.99
6774.5,525.86,338.39,258.36,62.99
6784.3,528.86,337.39,260.36,62.99
6794.2,525.86,339.39,258.36,61.99
6804.1,522.86,336.39,255.36,59.99
6814.0,520.86,335.39,250.36,57.99
6823.9,518.86,334.39,243.36,55.99
6833.8,515.86,334.39,235.36,52.99
6843.7,516.86,334.39,230.36,50.99
6853.5,517.86,335.39,223.36,47.99
6863.4,516.86,334.39,220.36,45.99
6873.3,517.86,335.39,215.36,43.99
6883.2,515.86,335.39,208.36,41.99
6893.1,515.86,335.39,205.36,41.99
6903.0,514.86,334.39,203.36,40.99
6912.9,513.86,334.39,203.36,41.99
6922.7,512.86,335.39,205.36,42.99
6932.6,507.86,334.39,205.36,41.99
6942.5,504.86,332.39,203.36,42.99
6952.4,499.86,330.39,200.36,42.99
6962.3,494.86,330.39,198.36,41.99
6972.2,491.86,329.39,197.36,42.99
6982.1,489.86,328.39,195.36,43.99
6991.9,486.86,327.39,191.36,40.99
7001.8,486.86,327.39,191.36,39.99
7011.7,479.86,326.39,189.36,39.99
7021.6,479.86,326.39,185.36,38.99
7031.5,472.86,325.39,183.36,38.99
7041.4,472.86,325.39,180.36,37.99
7051.3,466.86,324.39,177.36,36.99
7061.1,466.86,324.39,172.36,33.99
7071.0,458.86,323.39,168.36,31.99
7080.9,458.86,323.39,163.36,30.99
7090.8,454.86,323.39,159.36,29.99
7100.7,454.86,323.39,152.36,27.99
7110.6,443.86,321.39,146.36,24.99
7120.5,443.86,321.39,140.36,23.99
7130.3,438.86,322.39,136.36,22.99
7140.2,438.86,322.39,130.36,19.99
7150.1,443.86,323.39,125.36,16.99
7160.0,457.86,327.39,121.36,15.99
7169.9,470.86,333.39,120.36,14.99
7179.8,488.86,339.39,124.36,18.99
7189.7,504.86,345.39,141.36,25.99
7199.5,516.86,348.39,161.36,32.99
7209.4,528.86,354.39,182.36,39.99
7219.3,533.86,354.39,204.36,47.99
7229.2,540.86,357.39,224.36,55.99
7239.1,546.86,358.39,241.36,60.99
7249.0,548.86,361.39,252.36,63.99
7258.9,552.86,363.39,260.36,65.99
7268.7,556.86,364.39,266.36,68.99
7278.6,560.86,365.39,271.36,68.99
7288.5,558.86,367.39,274.36,69.99
7298.4,563.86,366.39,276.36,69.99
7308.3,564.86,367.39,273.36,70.99
7318.2,563.86,369.39,268.36,68.99
7328.1,562.86,369.39,267.36,67.99
7337.9,556.86,367.39,258.36,63.99
7347.8,554.86,365.39,250.36,60.99
7357.7,551.86,366.39,250.36,60.99
7367.6,550.86,365.39,235.36,54.99
7377.5,549.86,365.39,235.36,54.99
7387.4,551.86,368.39,219.36,48.99
7397.3,548.86,368.39,219.36,48.99
7407.1,548.86,368.39,208.36,43.99
7417.0,546.86,367.39,208.36,43.99
7426.9,547.86,369.39,198.36,41.99
7436.8,546.86,371.39,198.36,41.99
7446.7,549.86,371.39,190.36,38.99
7456.6,544.86,369.39,190.36,38.99
7466.5,541.86,369.39,183.36,36.99
7476.3,536.86,368.39,183.36,36.99
7486.2,535.86,367.39,176.36,33.99
7496.1,530.86,365.39,176.36,33.99
7506.0,526.86,364.39,170.36,32.99
7515.9,523.86,364.39,170.36,32.99
7525.8,519.86,362.39,162.36,29.99
7535.7,514.86,362.39,162.36,29.99
7545.5,510.86,360.39,158.36,29.99
7555.4,507.86,359.39,158.36,29.99
7565.3,502.86,356.39,152.36,26.99
7575.2,500.86,357.39,152.36,26.99
7585.1,495.86,356.39,144.36,23.99
7595.0,490.86,354.39,144.36,23.99
7604.9,487.86,353.39,144.36,22.99
7614.7,484.86,352.39,139.36,22.99
7624.6,482.86,352.39,135.36,21.99
7634.5,476.86,351.39,132.36,19.99
7644.4,474.86,351.39,127.36,17.99
7654.3,471.86,350.39,121.36,15.99
7664.2,467.86,349.39,116.36,12.99
7674.1,464.86,349.39,106.36,7.9895
7683.9,463.86,349.39,94.364,2.9895
7693.8,477.86,353.39,81.364,-5.0105
7703.7,495.86,358.39,66.364,-12.01
7713.6,515.86,366.39,52.364,-22.01
7723.5,536.86,374.39,42.364,-27.01
7733.4,536.86,374.39,49.364,-28.01
7743.2,559.86,381.39,61.364,-28.01
7753.1,559.86,381.39,71.364,-27.01
7763.0,574.86,386.39,82.364,-27.01
7772.9,574.86,386.39,92.364,-25.01
7782.8,587.86,391.39,96.364,-28.01
7792.7,587.86,391.39,94.364,-30.01
7802.6,596.86,396.39,98.364,-33.01
7812.5,596.86,396.39,97.364,-33.01
7822.3,601.86,397.39,96.364,-36.01
7832.2,601.86,397.39,93.364,-39.01
7842.1,606.86,400.39,89.364,-43.01
7852.0,606.86,400.39,82.364,-45.01
7861.9,606.86,401.39,73.364,-51.01
7871.8,602.86,399.39,61.364,-58.01
7881.6,598.86,397.39,45.364,-68.01
7891.5,597.86,396.39,19.364,-85.01
7901.4,594.86,397.39,-13.636,-106.01
7911.3,594.86,397.39,-52.636,-131.01
7921.2,595.86,397.39,-94.636,-156.01
7931.1,596.86,398.39,-130.64,-181.01
7941.0,595.86,397.39,-162.64,-202.01
7950.9,596.86,399.39,-190.64,-220.01
7960.7,595.86,398.39,-211.64,-237.01
7970.6,594.86,397.39,-234.64,-255.01
7980.5,595.86,400.39,-259.64,-268.01
7990.4,595.86,400.39,-273.64,-279.01
8000.3,594.86,401.39,-287.64,-289.01
8010.2,592.86,400.39,-295.64,-295.01
8020.0,589.86,400.39,-299.64,-296.01
8029.9,586.86,400.39,-301.64,-298.01
8039.8,584.86,400.39,-300.64,-297.01
8049.7,582.86,398.39,-295.64,-296.01
8059.6,578.86,399.39,-292.64,-292.01
8069.5,574.86,399.39,-290.64,-292.01
8079.4,572.86,399.39,-290.64,-288.01
8089.2,569.86,398.39,-287.64,-288.01
8099.1,561.86,397.39,-289.64,-287.01
8109.0,557.86,397.39,-291.64,-288.01
8118.9,555.86,397.39,-293.64,-289.01
8128.8,549.86,397.39,-294.64,-289.01
8138.7,542.86,394.39,-298.64,-289.01
8148.6,536.86,393.39,-302.64,-292.01
8158.4,532.86,392.39,-308.64,-296.01
8168.3,526.86,390.39,-315.64,-298.01
8178.2,518.86,388.39,-319.64,-299.01
8188.1,513.86,386.39,-322.64,-299.01
8198.0,507.86,385.39,-326.64,-301.01
8207.9,500.86,384.39,-334.64,-306.01
8217.8,494.86,383.39,-341.64,-310.01
8227.6,489.86,382.39,-348.64,-313.01
8237.5,489.86,384.39,-355.64,-317.01
8247.4,498.86,387.39,-363.64,-321.01
8257.3,513.86,391.39,-369.64,-322.01
8267.2,527.86,395.39,-372.64,-324.01
8277.1,542.86,401.39,-368.64,-324.01
8287.0,553.86,405.39,-356.64,-321.01
8296.8,558.86,408.39,-344.64,-318.01
8306.7,562.86,409.39,-330.64,-315.01
8316.6,566.86,407.39,-316.64,-312.01
8326.5,566.86,408.39,-302.64,-307.01
8336.4,565.86,408.39,-294.64,-305.01
8346.3,562.86,408.39,-290.64,-305.01
8356.2,560.86,406.39,-287.64,-307.01
8366.0,557.86,405.39,-287.64,-309.01
8375.9,552.86,403.39,-292.64,-313.01
8385.8,548.86,400.39,-293.64,-314.01
8395.7,544.86,399.39,-296.64,-316.01
8405.6,539.86,397.39,-303.64,-319.01
8415.5,530.86,394.39,-311.64,-322.01
8425.4,526.86,391.39,-321.64,-326.01
8435.2,520.86,389.39,-333.64,-331.01
8445.1,520.86,389.39,-333.64,-331.01
8455.0,511.86,387.39,-354.64,-339.01
8464.9,511.86,387.39,-354.64,-339.01
8474.8,503.86,383.39,-365.64,-344.01
8484.7,503.86,383.39,-365.64,-344.01
8494.6,498.86,382.39,-370.64,-341.01
8504.4,498.86,382.39,-370.64,-341.01
8514.3,491.86,381.39,-366.64,-335.01
8524.2,491.86,381.39,-366.64,-335.01
8534.1,482.86,374.39,-349.64,-321.01
8544.0,482.86,374.39,-349.64,-321.01
8553.9,472.86,369.39,-319.64,-296.01
8563.8,472.86,369.39,-319.64,-296.01
8573.6,465.86,368.39,-277.64,-265.01
8583.5,460.86,364.39,-277.64,-265.01
8593.4,454.86,363.39,-232.64,-230.01
8603.3,449.86,359.39,-232.64,-230.01
8613.2,442.86,358.39,-188.64,-196.01
8623.1,435.86,355.39,-188.64,-196.01
8633.0,431.86,354.39,-164.64,-178.01
8642.8,425.86,352.39,-142.64,-162.01
8652.7,418.86,348.39,-122.64,-147.01
8662.6,413.86,346.39,-105.64,-135.01
8672.5,408.86,343.39,-87.636,-120.01
8682.4,399.86,341.39,-69.636,-106.01
8692.3,395.86,338.39,-52.636,-93.01
8702.2,387.86,335.39,-36.636,-80.01
8712.0,378.86,333.39,-22.636,-69.01
8721.9,371.86,328.39,-9.6361,-59.01
8731.8,364.86,325.39,2.3639,-48.01
8741.7,356.86,321.39,15.364,-38.01
8751.6,347.86,319.39,24.364,-29.01
8761.5,341.86,317.39,34.364,-21.01
8771.4,332.86,312.39,40.364,-14.01
8781.2,325.86,310.39,46.364,-9.0105
8791.1,323.86,310.39,49.364,-4.0105
8801.0,326.86,311.39,49.364,-0.010479
8810.9,344.86,317.39,52.364,1.9895
8820.8,359.86,324.39,54.364,6.9895
8830.7,378.86,330.39,59.364,9.9895
8840.6,391.86,334.39,68.364,16.99
8850.4,402.86,336.39,90.364,25.99
8860.3,409.86,338.39,113.36,35.99
8870.2,413.86,338.39,132.36,42.99
8880.1,415.86,339.39,152.36,52.99
8890.0,415.86,339.39,168.36,55.99
8899.9,413.86,338.39,180.36,60.99
8909.8,410.86,337.39,187.36,63.99
8919.6,410.86,337.39,190.36,65.99
8929.5,407.86,335.39,190.36,63.99
8939.4,404.86,332.39,185.36,61.99
8949.3,399.86,330.39,180.36,58.99
8959.2,397.86,328.39,169.36,52.99
8969.1,389.86,326.39,156.36,43.99
8979.0,381.86,325.39,137.36,31.99
8988.8,378.86,322.39,119.36,16.99
8998.7,372.86,321.39,88.364,0.98952
9008.6,370.86,320.39,54.364,-20.01
9018.5,368.86,319.39,26.364,-38.01
9028.4,367.86,318.39,3.3639,-52.01
9038.3,366.86,317.39,-13.636,-63.01
9048.2,364.86,319.39,-26.636,-71.01
9058.0,364.86,318.39,-30.636,-75.01
9067.9,362.86,317.39,-35.636,-76.01
9077.8,360.86,317.39,-36.636,-79.01
9087.7,356.86,316.39,-38.636,-77.01
9097.6,352.86,314.39,-39.636,-77.01
9107.5,348.86,312.39,-35.636,-74.01
9117.4,346.86,312.39,-32.636,-71.01
9127.2,343.86,311.39,-26.636,-67.01
9137.1,340.86,311.39,-24.636,-64.01
9147.0,336.86,310.39,-18.636,-58.01
9156.9,336.86,310.39,-12.636,-54.01
9166.8,328.86,307.39,-4.6361,-47.01
9176.7,328.86,307.39,3.3639,-42.01
9186.6,321.86,304.39,9.3639,-35.01
9196.4,321.86,304.39,15.364,-30.01
9206.3,313.86,301.39,21.364,-25.01
9216.2,313.86,301.39,26.364,-19.01
9226.1,301.86,297.39,30.364,-14.01
9236.0,301.86,297.39,37.364,-10.01
9245.9,291.86,294.39,40.364,-6.0105
9255.8,291.86,294.39,45.364,-1.0105
9265.6,278.86,291.39,47.364,-0.010479
9275.5,278.86,291.39,48.364,2.9895
9285.4,274.86,289.39,48.364,5.9895
9295.3,267.86,287.39,48.364,7.9895
9305.2,264.86,286.39,48.364,6.9895
9315.1,254.86,283.39,46.364,8.9895
9325.0,251.86,285.39,48.364,9.9895
9334.8,248.86,284.39,47.364,9.9895
9344.7,251.86,287.39,45.364,10.99
9354.6,268.86,293.39,50.364,13.99
9364.5,289.86,300.39,50.364,15.99
9374.4,308.86,307.39,51.364,16.99
9384.3,325.86,312.39,60.364,19.99
9394.2,337.86,316.39,78.364,25.99
9404.0,346.86,317.39,97.364,29.99
9413.9,353.86,318.39,109.36,31.99
9423.8,355.86,318.39,113.36,29.99
9433.7,359.86,318.39,116.36,25.99
9443.6,361.86,316.39,115.36,21.99
9453.5,360.86,318.39,113.36,17.99
9463.4,360.86,318.39,117.36,16.99
9473.2,359.86,317.39,116.36,13.99
9483.1,359.86,316.39,114.36,11.99
9493.0,359.86,314.39,114.36,11.99
9502.9,356.86,313.39,110.36,8.9895
9512.8,354.86,312.39,110.36,8.9895
9522.7,350.86,309.39,106.36,6.9895
9532.6,345.86,307.39,106.36,6.9895
9542.4,344.86,305.39,98.364,5.9895
9552.3,343.86,305.39,98.364,5.9895
9562.2,345.86,306.39,97.364,7.9895
9572.1,344.86,305.39,97.364,7.9895
9582.0,345.86,305.39,103.36,14.99
9591.9,348.86,306.39,103.36,14.99
9601.8,348.86,306.39,116.36,24.99
9611.6,349.86,307.39,116.36,24.99
9621.5,352.86,306.39,127.36,33.99
9631.4,351.86,306.39,127.36,33.99
9641.3,353.86,306.39,136.36,40.99
9651.2,354.86,306.39,136.36,40.99
9661.1,354.86,308.39,142.36,44.99
9671.0,354.86,309.39,142.36,44.99
9680.8,355.86,309.39,150.36,49.99
9690.7,352.86,307.39,150.36,49.99
9700.6,351.86,306.39,153.36,52.99
9710.5,348.86,304.39,157.36,53.99
9720.4,347.86,305.39,160.36,57.99
9730.3,345.86,304.39,160.36,57.99
9740.2,343.86,302.39,162.36,59.99
9750.0,341.86,302.39,164.36,61.99
9759.9,338.86,301.39,168.36,63.99
9769.8,335.86,299.39,168.36,65.99
9779.7,331.86,298.39,169.36,67.99
9789.6,327.86,298.39,166.36,67.99
9799.5,326.86,297.39,165.36,67.99
9809.4,321.86,295.39,164.36,68.99
9819.2,318.86,294.39,164.36,67.99
9829.1,314.86,290.39,159.36,67.99
9839.0,310.86,290.39,158.36,64.99
9848.9,305.86,288.39,154.36,63.99
9858.8,304.86,287.39,152.36,63.99
9868.7,304.86,287.39,149.36,63.99
9878.6,323.86,294.39,146.36,63.99
9888.4,323.86,294.39,145.36,64.99
9898.3,367.86,308.39,145.36,65.99
9908.2,367.86,308.39,144.36,65.99
9918.1,404.86,320.39,152.36,68.99
9928.0,404.86,320.39,171.36,76.99
9937.9,426.86,327.39,192.36,84.99
9947.8,426.86,327.39,213.36,92.99
9957.6,441.86,331.39,231.36,98.99
9967.5,441.86,331.39,246.36,103.99
9977.4,452.86,335.39,259.36,105.99
9987.3,452.86,335.39,266.36,109.99
9997.2,456.86,337.39,275.36,112.99
10007.0,462.86,339.39,281.36,114.99
10017.0,463.86,340.39,284.36,114.99
10027.0,467.86,338.39,287.36,115.99
10037.0,470.86,342.39,287.36,116.99
10047.0,470.86,341.39,286.36,114.99
10057.0,468.86,341.39,283.36,113.99
10066.0,467.86,340.39,276.36,111.99
10076.0,463.86,340.39,273.36,109.99
10086.0,463.86,340.39,266.36,106.99
10096.0,465.86,339.39,257.36,104.99
10106.0,468.86,340.39,252.36,101.99
10116.0,468.86,342.39,244.36,99.99
10126.0,469.86,342.39,237.36,96.99
10136.0,470.86,341.39,232.36,93.99
10146.0,468.86,341.39,227.36,93.99
10155.0,468.86,341.39,225.36,90.99
10165.0,469.86,342.39,223.36,90.99
10175.0,467.86,341.39,220.36,90.99
10185.0,468.86,342.39,219.36,90.99
10195.0,467.86,340.39,221.36,90.99
10205.0,467.86,341.39,219.36,91.99
10215.0,467.86,340.39,221.36,92.99
10225.0,465.86,340.39,217.36,91.99
10234.0,462.86,341.39,214.36,91.99
10244.0,460.86,339.39,210.36,90.99
10254.0,456.86,337.39,208.36,88.99
10264.0,452.86,337.39,206.36,87.99
10274.0,445.86,336.39,200.36,85.99
10284.0,443.86,334.39,196.36,82.99
10294.0,439.86,333.39,194.36,81.99
10304.0,434.86,329.39,188.36,80.99
10314.0,426.86,328.39,184.36,78.99
10323.0,419.86,324.39,179.36,78.99
10333.0,415.86,322.39,175.36,76.99
10343.0,412.86,320.39,174.36,76.99
10353.0,409.86,320.39,167.36,75.99
10363.0,405.86,319.39,163.36,72.99
10373.0,404.86,318.39,159.36,71.99
10383.0,399.86,318.39,157.36,70.99
10393.0,396.86,320.39,155.36,69.99
10403.0,400.86,321.39,151.36,67.99
10412.0,407.86,323.39,146.36,67.99
10422.0,427.86,330.39,146.36,67.99
10432.0,446.86,334.39,144.36,68.99
10442.0,466.86,343.39,144.36,69.99
10452.0,486.86,349.39,162.36,74.99
10462.0,503.86,355.39,179.36,81.99
10472.0,517.86,361.39,196.36,85.99
10482.0,530.86,366.39,216.36,93.99
10492.0,540.86,370.39,236.36,99.99
10501.0,548.86,372.39,250.36,101.99
10511.0,556.86,376.39,261.36,106.99
10521.0,565.86,378.39,268.36,107.99
10531.0,570.86,381.39,275.36,108.99
10541.0,577.86,384.39,279.36,109.99
10551.0,582.86,385.39,282.36,111.99
10561.0,585.86,388.39,282.36,111.99
10571.0,587.86,388.39,279.36,110.99
10580.0,587.86,388.39,279.36,110.99
10590.0,589.86,389.39,272.36,108.99
10600.0,589.86,389.39,272.36,108.99
10610.0,585.86,388.39,255.36,98.99
10620.0,585.86,388.39,255.36,98.99
10630.0,584.86,388.39,235.36,89.99
10640.0,584.86,388.39,235.36,89.99
10650.0,584.86,389.39,217.36,83.99
10660.0,584.86,389.39,217.36,83.99
10669.0,585.86,391.39,206.36,78.99
10679.0,585.86,391.39,206.36,78.99
10689.0,584.86,392.39,198.36,75.99
10699.0,584.86,392.39,198.36,75.99
10709.0,583.86,392.39,196.36,75.99
10719.0,583.86,392.39,196.36,75.99
10729.0,582.86,392.39,193.36,75.99
10739.0,579.86,390.39,193.36,75.99
10749.0,576.86,390.39,193.36,76.99
10758.0,573.86,389.39,193.36,76.99
10768.0,571.86,389.39,190.36,75.99
10778.0,570.86,388.39,189.36,74.99
10788.0,565.86,386.39,186.36,74.99
10798.0,562.86,384.39,185.36,73.99
10808.0,558.86,385.39,183.36,74.99
10818.0,556.86,384.39,179.36,72.99
10828.0,553.86,383.39,177.36,71.99
10838.0,549.86,383.39,173.36,69.99
10847.0,547.86,382.39,170.36,69.99
10857.0,544.86,380.39,167.36,68.99
10867.0,539.86,379.39,162.36,66.99
10877.0,534.86,380.39,159.36,64.99
10887.0,529.86,376.39,152.36,61.99
10897.0,521.86,375.39,147.36,59.99
10907.0,515.86,372.39,142.36,56.99
10917.0,509.86,371.39,137.36,54.99
10926.0,503.86,370.39,129.36,52.99
10936.0,498.86,370.39,124.36,50.99
10946.0,498.86,370.39,121.36,48.99
10956.0,507.86,374.39,117.36,47.99
10966.0,517.86,377.39,115.36,47.99
10976.0,534.86,382.39,112.36,45.99
10986.0,553.86,391.39,110.36,46.99
10996.0,575.86,398.39,122.36,51.99
11006.0,589.86,406.39,143.36,58.99
11015.0,603.86,411.39,161.36,66.99
11025.0,611.86,413.39,184.36,73.99
11035.0,619.86,418.39,202.36,81.99
11045.0,629.86,422.39,221.36,86.99
11055.0,639.86,423.39,232.36,91.99
11065.0,648.86,430.39,239.36,92.99
11075.0,656.86,434.39,246.36,93.99
11085.0,662.86,436.39,249.36,94.99
11095.0,668.86,438.39,251.36,96.99
11104.0,674.86,444.39,255.36,97.99
11114.0,676.86,444.39,255.36,96.99
11124.0,675.86,445.39,251.36,96.99
11134.0,674.86,445.39,247.36,94.99
11144.0,668.86,443.39,239.36,91.99
11154.0,665.86,442.39,232.36,87.99
11164.0,662.86,439.39,223.36,83.99
11174.0,658.86,439.39,217.36,81.99
11184.0,655.86,438.39,209.36,79.99
11193.0,652.86,437.39,203.36,76.99
11203.0,654.86,435.39,196.36,73.99
11213.0,652.86,435.39,188.36,70.99
11223.0,650.86,435.39,184.36,69.99
11233.0,648.86,434.39,179.36,67.99
11243.0,647.86,433.39,179.36,67.99
11253.0,645.86,432.39,174.36,65.99
11263.0,642.86,432.39,172.36,65.99
11272.0,637.86,431.39,170.36,65.99
11282.0,635.86,429.39,169.36,65.99
11292.0,635.86,429.39,170.36,66.99
11302.0,626.86,427.39,170.36,65.99
11312.0,626.86,427.39,171.36,67.99
11322.0,616.86,425.39,170.36,68.99
11332.0,616.86,425.39,169.36,68.99
11342.0,606.86,418.39,167.36,68.99
11352.0,606.86,418.39,165.36,68.99
11361.0,596.86,415.39,164.36,67.99
11371.0,596.86,415.39,162.36,67.99
11381.0,590.86,412.39,161.36,67.99
11391.0,590.86,412.39,160.36,68.99
11401.0,580.86,409.39,163.36,69.99
11411.0,580.86,409.39,161.36,69.99
11421.0,567.86,405.39,162.36,70.99
11431.0,567.86,405.39,164.36,72.99
11441.0,563.86,404.39,164.36,72.99
11450.0,557.86,400.39,164.36,75.99
11460.0,552.86,399.39,164.36,74.99
11470.0,546.86,397.39,161.36,72.99
11480.0,539.86,395.39,160.36,73.99
11490.0,535.86,395.39,157.36,73.99
11500.0,533.86,395.39,154.36,72.99
11510.0,540.86,397.39,156.36,74.99
11520.0,549.86,400.39,154.36,74.99
11530.0,565.86,405.39,157.36,76.99
11539.0,578.86,410.39,168.36,80.99
11549.0,590.86,415.39,186.36,85.99
11559.0,599.86,418.39,205.36,95.99
11569.0,605.86,420.39,228.36,102.99
11579.0,609.86,421.39,244.36,108.99
11589.0,610.86,421.39,259.36,113.99
11599.0,610.86,420.39,273.36,117.99
11609.0,608.86,420.39,273.36,117.99
11618.0,604.86,418.39,285.36,120.99
11628.0,603.86,417.39,285.36,120.99
11638.0,599.86,416.39,288.36,122.99
11648.0,593.86,414.39,288.36,122.99
11658.0,587.86,412.39,284.36,119.99
11668.0,580.86,410.39,284.36,119.99
11678.0,569.86,405.39,272.36,115.99
11688.0,559.86,401.39,272.36,115.99
11698.0,551.86,400.39,257.36,108.99
11707.0,543.86,397.39,257.36,108.99
11717.0,536.86,392.39,242.36,102.99
11727.0,529.86,390.39,242.36,102.99
11737.0,520.86,389.39,229.36,98.99
11747.0,516.86,385.39,229.36,98.99
11757.0,507.86,383.39,219.36,94.99
11767.0,500.86,381.39,219.36,94.99
11777.0,494.86,377.39,214.36,93.99
11787.0,485.86,374.39,214.36,93.99
11796.0,480.86,372.39,210.36,94.99
11806.0,472.86,370.39,210.36,94.99
11816.0,463.86,367.39,209.36,93.99
11826.0,454.86,362.39,209.36,92.99
11836.0,447.86,360.39,208.36,94.99
11846.0,438.86,356.39,208.36,93.99
11856.0,432.86,352.39,209.36,94.99
11866.0,423.86,349.39,208.36,94.99
11876.0,416.86,345.39,206.36,96.99
11885.0,408.86,343.39,209.36,97.99
11895.0,399.86,341.39,210.36,98.99
11905.0,393.86,337.39,210.36,98.99
11915.0,385.86,333.39,206.36,98.99
11925.0,377.86,332.39,203.36,97.99
11935.0,370.86,330.39,204.36,97.99
11945.0,364.86,326.39,200.36,96.99
11955.0,358.86,324.39,195.36,96.99
11964.0,349.86,322.39,196.36,95.99
11974.0,342.86,317.39,193.36,95.99
11984.0,334.86,315.39,188.36,93.99
11994.0,327.86,312.39,185.36,94.99
12004.0,327.86,312.39,180.36,91.99
12014.0,311.86,305.39,177.36,89.99
12024.0,311.86,305.39,173.36,89.99
12034.0,296.86,298.39,173.36,90.99
12044.0,296.86,298.39,172.36,89.99
12053.0,305.86,303.39,169.36,89.99
12063.0,305.86,303.39,167.36,89.99
12073.0,335.86,311.39,164.36,89.99
12083.0,335.86,311.39,162.36,89.99
12093.0,364.86,320.39,165.36,90.99
12103.0,364.86,320.39,181.36,97.99
12113.0,380.86,326.39,201.36,105.99
12123.0,380.86,326.39,219.36,114.99
12133.0,385.86,325.39,238.36,120.99
12142.0,385.86,325.39,255.36,126.99
12152.0,386.86,325.39,267.36,131.99
12162.0,383.86,324.39,277.36,132.99
12172.0,382.86,323.39,279.36,133.99
12182.0,380.86,322.39,282.36,133.99
12192.0,379.86,322.39,282.36,133.99
12202.0,376.86,318.39,281.36,133.99
12212.0,374.86,320.39,280.36,131.99
12222.0,368.86,316.39,275.36,128.99
12231.0,361.86,315.39,269.36,126.99
12241.0,356.86,312.39,259.36,123.99
12251.0,353.86,312.39,252.36,120.99
12261.0,351.86,311.39,241.36,115.99
12271.0,348.86,310.39,233.36,112.99
12281.0,348.86,309.39,227.36,109.99
12291.0,346.86,309.39,220.36,107.99
12301.0,344.86,308.39,214.36,104.99
12310.0,343.86,308.39,210.36,103.99
12320.0,343.86,308.39,204.36,101.99
12330.0,342.86,308.39,200.36,102.99
12340.0,339.86,307.39,200.36,100.99
12350.0,337.86,305.39,199.36,100.99
12360.0,332.86,305.39,198.36,101.99
12370.0,329.86,303.39,200.36,103.99
12380.0,324.86,302.39,201.36,103.99
12390.0,319.86,300.39,202.36,104.99
12399.0,313.86,300.39,201.36,104.99
12409.0,309.86,296.39,199.36,105.99
12419.0,306.86,295.39,196.36,105.99
12429.0,303.86,295.39,194.36,104.99
12439.0,300.86,295.39,191.36,102.99
12449.0,297.86,294.39,187.36,101.99
12459.0,292.86,292.39,185.36,101.99
12469.0,290.86,293.39,184.36,99.99
12479.0,288.86,291.39,180.36,100.99
12488.0,283.86,290.39,178.36,98.99
12498.0,279.86,290.39,177.36,98.99
12508.0,274.86,291.39,175.36,98.99
12518.0,269.86,287.39,173.36,99.99
12528.0,263.86,286.39,170.36,97.99
12538.0,256.86,284.39,165.36,96.99
12548.0,252.86,283.39,160.36,95.99
12558.0,246.86,280.39,160.36,94.99
12568.0,242.86,280.39,154.36,92.99
12577.0,237.86,279.39,150.36,92.99
12587.0,238.86,280.39,147.36,91.99
12597.0,255.86,287.39,142.36,89.99
12607.0,274.86,294.39,142.36,90.99
12617.0,296.86,302.39,140.36,91.99
12627.0,315.86,310.39,139.36,90.99
12637.0,331.86,316.39,147.36,94.99
12647.0,342.86,319.39,164.36,100.99
12656.0,348.86,322.39,180.36,106.99
12666.0,356.86,325.39,194.36,113.99
12676.0,359.86,325.39,210.36,117.99
12686.0,364.86,328.39,221.36,120.99
12696.0,365.86,327.39,221.36,120.99
12706.0,369.86,329.39,236.36,125.99
12716.0,369.86,329.39,236.36,125.99
12726.0,367.86,329.39,241.36,126.99
12736.0,367.86,329.39,241.36,126.99
12745.0,367.86,328.39,241.36,126.99
12755.0,367.86,328.39,241.36,126.99
12765.0,360.86,325.39,239.36,125.99
12775.0,360.86,325.39,239.36,125.99
12785.0,348.86,321.39,231.36,122.99
12795.0,348.86,321.39,231.36,122.99
12805.0,343.86,318.39,223.36,119.99
12815.0,343.86,318.39,223.36,119.99
12825.0,338.86,318.39,212.36,114.99
12834.0,338.86,318.39,212.36,114.99
12844.0,334.86,316.39,202.36,111.99
12854.0,334.86,316.39,202.36,111.99
12864.0,331.86,316.39,204.36,111.99
12874.0,331.86,315.39,204.36,111.99
12884.0,329.86,313.39,205.36,113.99
12894.0,325.86,312.39,205.36,113.99
12904.0,320.86,310.39,208.36,116.99
12914.0,317.86,307.39,211.36,117.99
12923.0,313.86,305.39,213.36,119.99
12933.0,310.86,304.39,214.36,119.99
12943.0,304.86,301.39,215.36,120.99
12953.0,300.86,299.39,217.36,121.99
12963.0,294.86,298.39,217.36,123.99
12973.0,291.86,297.39,215.36,124.99
12983.0,288.86,295.39,217.36,123.99
12993.0,284.86,293.39,216.36,123.99
13002.0,280.86,291.39,215.36,124.99
13012.0,276.86,289.39,216.36,125.99
13022.0,270.86,288.39,214.36,123.99
13032.0,268.86,287.39,213.36,123.99
13042.0,261.86,283.39,213.36,125.99
13052.0,257.86,281.39,210.36,124.99
13062.0,252.86,280.39,210.36,126.99
13072.0,249.86,279.39,211.36,124.99
13082.0,242.86,276.39,208.36,124.99
13091.0,236.86,273.39,205.36,126.99
13101.0,232.86,273.39,209.36,126.99
13111.0,226.86,270.39,206.36,126.99
13121.0,229.86,271.39,203.36,125.99
13131.0,242.86,275.39,202.36,125.99
13141.0,263.86,281.39,202.36,125.99
13151.0,285.86,289.39,201.36,126.99
13161.0,308.86,297.39,198.36,126.99
13171.0,323.86,302.39,211.36,130.99
13180.0,334.86,306.39,232.36,139.99
13190.0,343.86,309.39,254.36,145.99
13200.0,353.86,311.39,275.36,153.99
13210.0,356.86,312.39,291.36,160.99
13220.0,363.86,315.39,308.36,163.99
13230.0,367.86,316.39,316.36,168.99
13240.0,373.86,319.39,324.36,167.99
13250.0,376.86,320.39,332.36,171.99
13259.0,379.86,321.39,335.36,172.99
13269.0,381.86,324.39,339.36,173.99
13279.0,385.86,323.39,339.36,172.99
13289.0,385.86,324.39,339.36,171.99
13299.0,384.86,322.39,334.36,169.99
13309.0,383.86,322.39,333.36,167.99
13319.0,380.86,318.39,323.36,164.99
13329.0,377.86,319.39,317.36,160.99
13339.0,375.86,318.39,306.36,156.99
13348.0,372.86,318.39,297.36,151.99
13358.0,372.86,316.39,288.36,149.99
13368.0,370.86,316.39,278.36,145.99
13378.0,368.86,313.39,271.36,143.99
13388.0,364.86,311.39,263.36,141.99
13398.0,362.86,311.39,258.36,137.99
13408.0,357.86,307.39,252.36,136.99
13418.0,354.86,305.39,249.36,133.99
13428.0,349.86,301.39,241.36,132.99
13437.0,347.86,298.39,235.36,128.99
13447.0,347.86,298.39,229.36,127.99
13457.0,335.86,292.39,225.36,124.99
13467.0,335.86,292.39,224.36,124.99
13477.0,329.86,288.39,224.36,125.99
13487.0,329.86,288.39,223.36,125.99
13497.0,324.86,287.39,226.36,125.99
13507.0,324.86,287.39,221.36,125.99
13517.0,319.86,286.39,219.36,124.99
13526.0,319.86,286.39,219.36,124.99
13536.0,314.86,288.39,216.36,122.99
13546.0,314.86,288.39,212.36,123.99
13556.0,304.86,283.39,216.36,123.99
13566.0,304.86,283.39,213.36,122.99
13576.0,298.86,281.39,210.36,122.99
13586.0,287.86,278.39,208.36,121.99
13596.0,276.86,272.39,206.36,121.99
13605.0,265.86,266.39,204.36,120.99
13615.0,256.86,264.39,202.36,120.99
13625.0,247.86,259.39,199.36,120.99
13635.0,237.86,257.39,199.36,121.99
13645.0,231.86,253.39,199.36,122.99
13655.0,226.86,252.39,195.36,120.99
13665.0,236.86,253.39,194.36,119.99
13675.0,251.86,255.39,194.36,120.99
13685.0,269.86,262.39,195.36,121.99
13694.0,288.86,267.39,206.36,126.99
13704.0,305.86,274.39,227.36,133.99
13714.0,321.86,276.39,247.36,140.99
13724.0,337.86,282.39,247.36,140.99
13734.0,353.86,287.39,286.36,154.99
13744.0,363.86,294.39,286.36,154.99
13754.0,375.86,297.39,311.36,163.99
13764.0,387.86,303.39,311.36,163.99
13774.0,403.86,311.39,331.36,168.99
13783.0,412.86,315.39,331.36,168.99
13793.0,422.86,321.39,343.36,171.99
13803.0,431.86,324.39,343.36,171.99
13813.0,440.86,327.39,345.36,172.99
13823.0,444.86,330.39,345.36,172.99
13833.0,448.86,332.39,336.36,169.99
13843.0,449.86,330.39,336.36,169.99
13853.0,446.86,330.39,328.36,165.99
13863.0,446.86,329.39,328.36,165.99
13872.0,445.86,328.39,314.36,159.99
13882.0,445.86,327.39,314.36,159.99
13892.0,445.86,329.39,299.36,154.99
13902.0,450.86,330.39,299.36,154.99
13912.0,454.86,331.39,288.36,148.99
13922.0,458.86,332.39,288.36,148.99
13932.0,462.86,334.39,281.36,146.99
13942.0,465.86,335.39,276.36,144.99
13951.0,468.86,337.39,276.36,144.99
13961.0,472.86,337.39,272.36,142.99
13971.0,475.86,340.39,270.36,142.99
13981.0,477.86,340.39,269.36,141.99
13991.0,479.86,344.39,265.36,143.99
14001.0,481.86,346.39,266.36,142.99
14011.0,485.86,349.39,263.36,142.99
14021.0,489.86,354.39,261.36,143.99
14031.0,498.86,358.39,259.36,141.99
14040.0,501.86,364.39,256.36,141.99
14050.0,502.86,367.39,253.36,141.99
14060.0,506.86,368.39,253.36,142.99
14070.0,505.86,370.39,252.36,141.99
14080.0,508.86,372.39,251.36,142.99
14090.0,508.86,375.39,249.36,140.99
14100.0,512.86,380.39,246.36,140.99
14110.0,510.86,382.39,243.36,139.99
14120.0,512.86,384.39,239.36,138.99
14129.0,513.86,387.39,234.36,137.99
14139.0,512.86,388.39,230.36,134.99
14149.0,514.86,393.39,226.36,132.99
14159.0,514.86,393.39,218.36,130.99
14169.0,514.86,401.39,214.36,129.99
14179.0,514.86,401.39,211.36,128.99
14189.0,524.86,409.39,204.36,124.99
14199.0,524.86,409.39,199.36,123.99
14209.0,563.86,426.39,195.36,122.99
14218.0,563.86,426.39,192.36,122.99
14228.0,607.86,444.39,195.36,123.99
14238.0,607.86,444.39,209.36,130.99
14248.0,644.86,462.39,225.36,136.99
14258.0,644.86,462.39,243.36,141.99
14268.0,671.86,473.39,262.36,149.99
14278.0,671.86,473.39,277.36,154.99
14288.0,684.86,479.39,287.36,157.99
14297.0,693.86,485.39,295.36,158.99
14307.0,700.86,489.39,298.36,158.99
14317.0,710.86,494.39,302.36,158.99
14327.0,718.86,499.39,304.36,159.99
14337.0,723.86,504.39,305.36,159.99
14347.0,726.86,507.39,303.36,158.99
14357.0,729.86,511.39,301.36,157.99
14367.0,731.86,513.39,295.36,156.99
14377.0,731.86,515.39,291.36,153.99
14386.0,730.86,516.39,283.36,150.99
14396.0,727.86,517.39,279.36,147.99
14406.0,727.86,519.39,270.36,145.99
14416.0,724.86,518.39,262.36,141.99
14426.0,725.86,520.39,250.36,138.99
14436.0,724.86,521.39,245.36,135.99
14446.0,725.86,520.39,238.36,132.99
14456.0,727.86,523.39,229.36,129.99
14466.0,726.86,522.39,223.36,127.99
14475.0,727.86,525.39,219.36,125.99
14485.0,728.86,526.39,216.36,124.99
14495.0,729.86,528.39,212.36,122.99
14505.0,729.86,531.39,210.36,122.99
14515.0,730.86,532.39,207.36,121.99
14525.0,728.86,531.39,204.36,121.99
14535.0,724.86,531.39,202.36,121.99
14545.0,720.86,528.39,202.36,121.99
14555.0,715.86,526.39,200.36,120.99
14564.0,712.86,525.39,199.36,120.99
14574.0,707.86,523.39,196.36,119.99
14584.0,700.86,521.39,192.36,118.99
14594.0,696.86,515.39,192.36,117.99
14604.0,692.86,516.39,187.36,116.99
14614.0,689.86,514.39,185.36,115.99
14624.0,687.86,513.39,183.36,114.99
14634.0,682.86,513.39,180.36,113.99
14643.0,678.86,511.39,178.36,113.99
14653.0,674.86,510.39,175.36,111.99
14663.0,671.86,510.39,170.36,110.99
14673.0,665.86,509.39,169.36,111.99
14683.0,660.86,508.39,164.36,109.99
14693.0,653.86,506.39,163.36,110.99
14703.0,647.86,504.39,158.36,109.99
14713.0,643.86,503.39,157.36,108.99
14723.0,640.86,501.39,157.36,108.99
14732.0,640.86,505.39,152.36,108.99
14742.0,651.86,508.39,150.36,108.99
14752.0,668.86,514.39,150.36,108.99
14762.0,683.86,518.39,153.36,109.99
14772.0,697.86,524.39,160.36,114.99
14782.0,713.86,529.39,182.36,122.99
14792.0,721.86,532.39,202.36,129.99
14802.0,730.86,537.39,223.36,138.99
14812.0,736.86,538.39,223.36,138.99
14821.0,740.86,539.39,258.36,150.99
14831.0,741.86,540.39,258.36,150.99
14841.0,743.86,543.39,277.36,157.99
14851.0,740.86,542.39,277.36,157.99
14861.0,741.86,542.39,289.36,161.99
14871.0,741.86,542.39,289.36,161.99
14881.0,737.86,541.39,294.36,161.99
14891.0,737.86,541.39,294.36,161.99
14901.0,729.86,538.39,290.36,159.99
14910.0,729.86,538.39,290.36,159.99
14920.0,715.86,535.39,275.36,154.99
14930.0,715.86,535.39,275.36,154.99
14940.0,702.86,527.39,259.36,146.99
14950.0,702.86,527.39,259.36,146.99
14960.0,697.86,524.39,245.36,141.99
14970.0,697.86,524.39,245.36,141.99
14980.0,693.86,519.39,236.36,138.99
14989.0,693.86,519.39,236.36,138.99
14999.0,691.86,517.39,229.36,137.99
15009.0,686.86,516.39,224.36,134.99
15019.0,682.86,512.39,220.36,133.99
15029.0,679.86,509.39,214.36,130.99
15039.0,674.86,507.39,209.36,130.99
15049.0,671.86,505.39,207.36,127.99
15059.0,667.86,503.39,202.36,125.99
15069.0,666.86,502.39,198.36,125.99
15078.0,665.86,503.39,195.36,122.99
15088.0,662.86,504.39,189.36,121.99
15098.0,665.86,508.39,178.36,114.99
15108.0,668.86,511.39,160.36,105.99
15118.0,669.86,514.39,137.36,93.99
15128.0,665.86,513.39,118.36,79.99
15138.0,662.86,511.39,77.364,51.99
15148.0,656.86,506.39,25.364,14.99
15158.0,650.86,505.39,-35.636,-27.01
15167.0,643.86,504.39,-91.636,-63.01
15177.0,634.86,499.39,-134.64,-91.01
15187.0,623.86,496.39,-165.64,-111.01
15197.0,616.86,491.39,-191.64,-126.01
15207.0,603.86,485.39,-210.64,-139.01
15217.0,592.86,480.39,-225.64,-146.01
15227.0,582.86,476.39,-232.64,-151.01
15237.0,574.86,472.39,-236.64,-154.01
15247.0,561.86,466.39,-240.64,-153.01
15256.0,551.86,461.39,-238.64,-152.01
15266.0,542.86,458.39,-237.64,-150.01
15276.0,536.86,456.39,-235.64,-147.01
15286.0,536.86,454.39,-233.64,-143.01
15296.0,544.86,457.39,-226.64,-136.01
15306.0,558.86,457.39,-215.64,-128.01
15316.0,571.86,464.39,-198.64,-118.01
15326.0,585.86,466.39,-176.64,-102.01
15335.0,594.86,468.39,-134.64,-80.01
15345.0,601.86,470.39,-90.636,-58.01
15355.0,604.86,470.39,-49.636,-36.01
15365.0,606.86,467.39,-9.6361,-15.01
15375.0,606.86,468.39,24.364,2.9895
15385.0,607.86,467.39,54.364,18.99
15395.0,606.86,466.39,74.364,30.99
15405.0,605.86,466.39,94.364,43.99
15415.0,602.86,461.39,109.36,49.99
15424.0,601.86,461.39,112.36,53.99
15434.0,596.86,459.39,115.36,56.99
15444.0,594.86,458.39,102.36,48.99
15454.0,591.86,455.39,78.364,30.99
15464.0,584.86,455.39,38.364,4.9895
15474.0,578.86,452.39,-15.636,-27.01
15484.0,575.86,452.39,-65.636,-58.01
15494.0,573.86,449.39,-100.64,-80.01
15504.0,568.86,449.39,-128.64,-96.01
15513.0,566.86,447.39,-151.64,-107.01
15523.0,561.86,447.39,-174.64,-122.01
15533.0,559.86,445.39,-203.64,-138.01
15543.0,556.86,442.39,-229.64,-154.01
15553.0,552.86,440.39,-257.64,-170.01
15563.0,550.86,440.39,-276.64,-184.01
15573.0,547.86,437.39,-295.64,-197.01
15583.0,547.86,437.39,-311.64,-205.01
15593.0,537.86,434.39,-320.64,-211.01
15602.0,537.86,434.39,-325.64,-216.01
15612.0,524.86,428.39,-325.64,-217.01
15622.0,524.86,428.39,-326.64,-218.01
15632.0,512.86,423.39,-329.64,-218.01
15642.0,512.86,423.39,-328.64,-217.01
15652.0,501.86,420.39,-324.64,-215.01
15662.0,501.86,420.39,-320.64,-211.01
15672.0,492.86,419.39,-317.64,-205.01
15681.0,492.86,419.39,-315.64,-204.01
15691.0,481.86,420.39,-316.64,-203.01
15701.0,481.86,420.39,-320.64,-203.01
15711.0,475.86,420.39,-319.64,-202.01
15721.0,469.86,419.39,-323.64,-201.01
15731.0,460.86,418.39,-321.64,-198.01
15741.0,451.86,415.39,-322.64,-195.01
15751.0,441.86,412.39,-321.64,-194.01
15761.0,432.86,408.39,-324.64,-194.01
15770.0,425.86,406.39,-328.64,-196.01
15780.0,413.86,403.39,-335.64,-199.01
15790.0,404.86,399.39,-335.64,-197.01
15800.0,394.86,393.39,-337.64,-197.01
15810.0,385.86,392.39,-338.64,-196.01
15820.0,380.86,388.39,-338.64,-195.01
15830.0,379.86,390.39,-337.64,-194.01
15840.0,393.86,392.39,-337.64,-194.01
15850.0,412.86,399.39,-327.64,-186.01
15859.0,430.86,407.39,-327.64,-186.01
15869.0,448.86,412.39,-309.64,-176.01
15879.0,462.86,416.39,-309.64,-176.01
15889.0,470.86,417.39,-263.64,-156.01
15899.0,477.86,418.39,-263.64,-156.01
15909.0,482.86,419.39,-226.64,-143.01
15919.0,480.86,417.39,-226.64,-143.01
15929.0,480.86,415.39,-214.64,-146.01
15939.0,476.86,412.39,-214.64,-146.01
15948.0,475.86,412.39,-222.64,-158.01
15958.0,471.86,410.39,-222.64,-158.01
15968.0,464.86,406.39,-239.64,-171.01
15978.0,458.86,400.39,-239.64,-171.01
15988.0,449.86,397.39,-257.64,-181.01
15998.0,438.86,392.39,-257.64,-181.01
16008.0,427.86,385.39,-283.64,-195.01
16018.0,416.86,380.39,-283.64,-195.01
16027.0,405.86,376.39,-304.64,-206.01
16037.0,398.86,372.39,-304.64,-206.01
16047.0,389.86,366.39,-313.64,-211.01
16057.0,383.86,364.39,-323.64,-215.01
16067.0,378.86,360.39,-331.64,-219.01
16077.0,373.86,357.39,-344.64,-225.01
16087.0,367.86,355.39,-349.64,-228.01
16097.0,363.86,351.39,-352.64,-231.01
16107.0,358.86,348.39,-355.64,-229.01
16116.0,347.86,344.39,-354.64,-229.01
16126.0,340.86,339.39,-352.64,-227.01
16136.0,330.86,334.39,-354.64,-228.01
16146.0,322.86,330.39,-351.64,-227.01
16156.0,313.86,326.39,-350.64,-226.01
16166.0,305.86,321.39,-347.64,-225.01
16176.0,295.86,318.39,-346.64,-222.01
16186.0,283.86,312.39,-346.64,-222.01
16196.0,277.86,309.39,-349.64,-221.01
16205.0,268.86,303.39,-350.64,-219.01
16215.0,261.86,299.39,-350.64,-218.01
16225.0,253.86,295.39,-349.64,-214.01
16235.0,245.86,291.39,-344.64,-210.01
16245.0,237.86,288.39,-339.64,-203.01
16255.0,230.86,283.39,-332.64,-199.01
16265.0,222.86,280.39,-322.64,-191.01
16275.0,213.86,277.39,-313.64,-181.01
16285.0,205.86,271.39,-301.64,-171.01
16294.0,205.86,271.39,-288.64,-162.01
16304.0,188.86,264.39,-273.64,-149.01
16314.0,188.86,264.39,-258.64,-137.01
16324.0,173.86,257.39,-242.64,-127.01
16334.0,173.86,257.39,-227.64,-116.01
16344.0,159.86,250.39,-211.64,-104.01
16354.0,159.86,250.39,-201.64,-96.01
16364.0,176.86,253.39,-194.64,-88.01
16373.0,176.86,253.39,-185.64,-80.01
16383.0,220.86,268.39,-178.64,-73.01
16393.0,220.86,268.39,-171.64,-65.01
16403.0,253.86,280.39,-160.64,-56.01
16413.0,253.86,280.39,-130.64,-40.01
16423.0,265.86,280.39,-98.636,-26.01
16433.0,272.86,283.39,-71.636,-12.01
16443.0,280.86,285.39,-43.636,0.98952
16453.0,283.86,285.39,-21.636,12.99
16462.0,285.86,285.39,-5.6361,19.99
16472.0,286.86,286.39,-1.6361,19.99
16482.0,289.86,284.39,-5.6361,14.99
16492.0,288.86,285.39,-11.636,7.9895
16502.0,291.86,285.39,-25.636,0.98952
16512.0,292.86,285.39,-35.636,-8.0105
16522.0,292.86,284.39,-43.636,-12.01
16532.0,290.86,284.39,-47.636,-16.01
16542.0,288.86,284.39,-56.636,-20.01
16551.0,282.86,282.39,-64.636,-24.01
16561.0,280.86,281.39,-73.636,-29.01
16571.0,275.86,280.39,-87.636,-35.01
16581.0,273.86,278.39,-102.64,-42.01
16591.0,272.86,279.3