t,carotid_880nm,carotid_660nm,brachial_880nm,brachial_660nm
3.5,-43.049,-79.344,-862.91,-623.84
13.4,-41.049,-75.344,-874.91,-629.84
23.3,-41.049,-74.344,-884.91,-632.84
33.2,-41.049,-70.344,-897.91,-637.84
43.1,-39.049,-67.344,-905.91,-643.84
52.9,-41.049,-66.344,-911.91,-643.84
62.8,-41.049,-63.344,-910.91,-645.84
72.7,-40.049,-62.344,-906.91,-641.84
82.6,-42.049,-60.344,-901.91,-639.84
92.5,-44.049,-57.344,-894.91,-635.84
102.4,-44.049,-55.344,-890.91,-634.84
112.3,-44.049,-54.344,-882.91,-628.84
122.1,-47.049,-54.344,-864.91,-618.84
132.0,-48.049,-54.344,-840.91,-603.84
141.9,-52.049,-55.344,-813.91,-587.84
151.8,-59.049,-59.344,-782.91,-565.84
161.7,-56.049,-56.344,-751.91,-544.84
171.6,-44.049,-51.344,-720.91,-523.84
181.5,-25.049,-47.344,-684.91,-499.84
191.3,-5.0494,-39.344,-644.91,-471.84
201.2,20.951,-30.344,-578.91,-433.84
211.1,43.951,-17.344,-490.91,-388.84
221.0,63.951,-9.3445,-432.91,-355.84
230.9,78.951,-4.3445,-376.91,-326.84
240.8,86.951,-3.3445,-338.91,-307.84
250.7,94.951,0.65555,-347.91,-311.84
260.5,104.95,4.6555,-349.91,-311.84
270.4,110.95,6.6555,-356.91,-311.84
280.3,117.95,8.6555,-359.91,-312.84
290.2,121.95,12.656,-357.91,-308.84
300.1,125.95,13.656,-340.91,-296.84
310.0,130.95,14.656,-321.91,-284.84
319.9,128.95,13.656,-308.91,-273.84
329.7,124.95,14.656,-303.91,-270.84
339.6,117.95,12.656,-305.91,-270.84
349.5,111.95,8.6555,-314.91,-273.84
359.4,109.95,6.6555,-319.91,-274.84
369.3,100.95,6.6555,-326.91,-275.84
379.2,98.951,3.6555,-333.91,-277.84
389.1,95.951,3.6555,-340.91,-278.84
398.9,91.951,1.6555,-351.91,-282.84
408.8,82.951,-0.34445,-362.91,-286.84
418.7,79.951,-2.3445,-376.91,-291.84
428.6,72.951,-4.3445,-389.91,-295.84
438.5,68.951,-5.3445,-394.91,-298.84
448.4,64.951,-4.3445,-402.91,-301.84
458.3,59.951,-5.3445,-413.91,-306.84
468.1,55.951,-7.3445,-417.91,-308.84
478.0,47.951,-9.3445,-425.91,-312.84
487.9,42.951,-11.344,-430.91,-314.84
497.8,36.951,-15.344,-432.91,-314.84
507.7,27.951,-18.344,-432.91,-313.84
517.6,24.951,-20.344,-433.91,-312.84
527.5,16.951,-21.344,-435.91,-313.84
537.3,9.9506,-25.344,-436.91,-314.84
547.2,9.9506,-25.344,-438.91,-312.84
557.1,-4.0494,-29.344,-443.91,-312.84
567.0,-4.0494,-29.344,-443.91,-313.84
576.9,-21.049,-38.344,-446.91,-312.84
586.8,-21.049,-38.344,-448.91,-313.84
596.7,-39.049,-47.344,-450.91,-315.84
606.5,-39.049,-47.344,-450.91,-315.84
616.4,-63.049,-58.344,-455.91,-316.84
626.3,-63.049,-58.344,-455.91,-316.84
636.2,-87.049,-69.344,-464.91,-317.84
646.1,-87.049,-69.344,-464.91,-317.84
656.0,-111.05,-79.344,-473.91,-320.84
665.9,-111.05,-79.344,-473.91,-320.84
675.7,-140.05,-93.344,-481.91,-323.84
685.6,-140.05,-93.344,-481.91,-323.84
695.5,-142.05,-94.344,-492.91,-325.84
705.4,-131.05,-91.344,-492.91,-325.84
715.3,-121.05,-88.344,-491.91,-324.84
725.2,-105.05,-84.344,-491.91,-324.84
735.1,-85.049,-77.344,-472.91,-315.84
744.9,-67.049,-69.344,-472.91,-315.84
754.8,-55.049,-66.344,-427.91,-297.84
764.7,-48.049,-66.344,-427.91,-297.84
774.6,-44.049,-66.344,-389.91,-285.84
784.5,-43.049,-67.344,-389.91,-285.84
794.4,-41.049,-67.344,-387.91,-290.84
804.3,-41.049,-67.344,-387.91,-290.84
814.1,-39.049,-67.344,-404.91,-304.84
824.0,-37.049,-67.344,-432.91,-324.84
833.9,-36.049,-65.344,-465.91,-348.84
843.8,-39.049,-67.344,-496.91,-370.84
853.7,-42.049,-70.344,-516.91,-381.84
863.6,-49.049,-70.344,-532.91,-390.84
873.5,-53.049,-73.344,-544.91,-398.84
883.3,-58.049,-75.344,-555.91,-404.84
893.2,-63.049,-75.344,-564.91,-409.84
903.1,-64.049,-76.344,-574.91,-414.84
913.0,-66.049,-78.344,-582.91,-416.84
922.9,-69.049,-76.344,-586.91,-416.84
932.8,-68.049,-76.344,-591.91,-418.84
942.7,-70.049,-77.344,-594.91,-417.84
952.5,-76.049,-81.344,-599.91,-417.84
962.4,-78.049,-82.344,-598.91,-416.84
972.3,-82.049,-85.344,-594.91,-413.84
982.2,-88.049,-87.344,-589.91,-409.84
992.1,-94.049,-89.344,-583.91,-405.84
1002.0,-99.049,-92.344,-581.91,-402.84
1011.9,-105.05,-94.344,-577.91,-399.84
1021.7,-112.05,-98.344,-578.91,-399.84
1031.6,-119.05,-101.34,-579.91,-398.84
1041.5,-124.05,-103.34,-579.91,-397.84
1051.4,-131.05,-106.34,-578.91,-396.84
1061.3,-138.05,-108.34,-576.91,-392.84
1071.2,-143.05,-110.34,-576.91,-391.84
1081.1,-149.05,-112.34,-574.91,-389.84
1090.9,-155.05,-115.34,-577.91,-389.84
1100.8,-159.05,-116.34,-586.91,-393.84
1110.7,-169.05,-120.34,-595.91,-399.84
1120.6,-175.05,-122.34,-613.91,-409.84
1130.5,-183.05,-127.34,-639.91,-425.84
1140.4,-191.05,-130.34,-666.91,-442.84
1150.3,-198.05,-134.34,-694.91,-459.84
1160.1,-208.05,-137.34,-719.91,-478.84
1170.0,-215.05,-141.34,-742.91,-493.84
1179.9,-227.05,-144.34,-771.91,-511.84
1189.8,-240.05,-149.34,-797.91,-528.84
1199.7,-249.05,-155.34,-818.91,-540.84
1209.6,-251.05,-153.34,-836.91,-552.84
1219.5,-243.05,-153.34,-850.91,-561.84
1229.3,-227.05,-148.34,-862.91,-568.84
1239.2,-204.05,-139.34,-869.91,-572.84
1249.1,-181.05,-130.34,-872.91,-571.84
1259.0,-181.05,-130.34,-870.91,-572.84
1268.9,-157.05,-126.34,-846.91,-562.84
1278.8,-157.05,-126.34,-825.91,-557.84
1288.7,-153.05,-130.34,-803.91,-547.84
1298.5,-153.05,-130.34,-779.91,-538.84
1308.4,-154.05,-133.34,-756.91,-529.84
1318.3,-154.05,-133.34,-736.91,-519.84
1328.2,-157.05,-137.34,-723.91,-512.84
1338.1,-157.05,-137.34,-705.91,-504.84
1348.0,-162.05,-140.34,-692.91,-498.84
1357.9,-162.05,-140.34,-680.91,-491.84
1367.7,-169.05,-144.34,-669.91,-483.84
1377.6,-169.05,-144.34,-658.91,-475.84
1387.5,-182.05,-151.34,-653.91,-470.84
1397.4,-182.05,-151.34,-648.91,-465.84
1407.3,-188.05,-151.34,-644.91,-461.84
1417.2,-193.05,-154.34,-641.91,-456.84
1427.1,-196.05,-154.34,-638.91,-450.84
1436.9,-196.05,-154.34,-635.91,-445.84
1446.8,-195.05,-153.34,-633.91,-439.84
1456.7,-196.05,-152.34,-632.91,-436.84
1466.6,-193.05,-149.34,-628.91,-432.84
1476.5,-196.05,-149.34,-624.91,-428.84
1486.4,-193.05,-149.34,-622.91,-426.84
1496.3,-197.05,-147.34,-624.91,-424.84
1506.1,-197.05,-147.34,-621.91,-420.84
1516.0,-200.05,-146.34,-618.91,-417.84
1525.9,-202.05,-146.34,-614.91,-414.84
1535.8,-204.05,-143.34,-612.91,-411.84
1545.7,-208.05,-144.34,-606.91,-406.84
1555.6,-213.05,-145.34,-600.91,-402.84
1565.5,-216.05,-146.34,-594.91,-397.84
1575.3,-222.05,-144.34,-593.91,-394.84
1585.2,-225.05,-146.34,-594.91,-394.84
1595.1,-230.05,-147.34,-598.91,-395.84
1605.0,-238.05,-148.34,-599.91,-396.84
1614.9,-242.05,-150.34,-604.91,-397.84
1624.8,-250.05,-152.34,-609.91,-399.84
1634.7,-257.05,-154.34,-613.91,-401.84
1644.5,-264.05,-155.34,-623.91,-407.84
1654.4,-270.05,-159.34,-633.91,-413.84
1664.3,-283.05,-163.34,-650.91,-424.84
1674.2,-292.05,-167.34,-650.91,-424.84
1684.1,-302.05,-171.34,-683.91,-446.84
1694.0,-315.05,-178.34,-683.91,-446.84
1703.9,-330.05,-183.34,-700.91,-455.84
1713.7,-342.05,-189.34,-700.91,-455.84
1723.6,-351.05,-194.34,-723.91,-471.84
1733.5,-349.05,-196.34,-723.91,-471.84
1743.4,-334.05,-194.34,-739.91,-481.84
1753.3,-307.05,-182.34,-739.91,-481.84
1763.2,-281.05,-168.34,-751.91,-489.84
1773.1,-264.05,-163.34,-751.91,-489.84
1782.9,-255.05,-163.34,-715.91,-479.84
1792.8,-251.05,-161.34,-715.91,-479.84
1802.7,-242.05,-161.34,-674.91,-463.84
1812.6,-239.05,-160.34,-674.91,-463.84
1822.5,-236.05,-160.34,-638.91,-449.84
1832.4,-235.05,-162.34,-638.91,-449.84
1842.3,-237.05,-163.34,-603.91,-436.84
1852.1,-238.05,-166.34,-603.91,-436.84
1862.0,-240.05,-169.34,-573.91,-420.84
1871.9,-240.05,-168.34,-573.91,-420.84
1881.8,-241.05,-171.34,-547.91,-408.84
1891.7,-246.05,-173.34,-547.91,-408.84
1901.6,-253.05,-176.34,-542.91,-405.84
1911.5,-258.05,-179.34,-539.91,-401.84
1921.3,-264.05,-182.34,-542.91,-401.84
1931.2,-268.05,-183.34,-547.91,-406.84
1941.1,-270.05,-188.34,-554.91,-407.84
1951.0,-275.05,-191.34,-563.91,-413.84
1960.9,-281.05,-195.34,-571.91,-413.84
1970.8,-281.05,-195.34,-575.91,-416.84
1980.7,-291.05,-202.34,-578.91,-416.84
1990.5,-291.05,-202.34,-581.91,-417.84
2000.4,-307.05,-210.34,-579.91,-414.84
2010.3,-307.05,-210.34,-577.91,-412.84
2020.2,-325.05,-218.34,-571.91,-407.84
2030.1,-325.05,-218.34,-564.91,-404.84
2040.0,-347.05,-231.34,-556.91,-398.84
2049.9,-347.05,-231.34,-547.91,-392.84
2059.7,-367.05,-240.34,-534.91,-386.84
2069.6,-367.05,-240.34,-529.91,-378.84
2079.5,-387.05,-247.34,-516.91,-373.84
2089.4,-387.05,-247.34,-509.91,-366.84
2099.3,-407.05,-256.34,-499.91,-359.84
2109.2,-407.05,-256.34,-491.91,-353.84
2119.0,-419.05,-262.34,-483.91,-346.84
2128.9,-428.05,-267.34,-476.91,-340.84
2138.8,-439.05,-272.34,-467.91,-335.84
2148.7,-451.05,-277.34,-465.91,-331.84
2158.6,-461.05,-281.34,-463.91,-328.84
2168.5,-477.05,-289.34,-459.91,-325.84
2178.4,-491.05,-294.34,-458.91,-324.84
2188.3,-503.05,-301.34,-457.91,-324.84
2198.1,-517.05,-307.34,-458.91,-321.84
2208.0,-532.05,-315.34,-459.91,-320.84
2217.9,-548.05,-320.34,-456.91,-318.84
2227.8,-557.05,-326.34,-457.91,-318.84
2237.7,-554.05,-328.34,-460.91,-316.84
2247.6,-543.05,-327.34,-460.91,-315.84
2257.4,-525.05,-322.34,-463.91,-316.84
2267.3,-509.05,-318.34,-463.91,-316.84
2277.2,-501.05,-323.34,-452.91,-313.84
2287.1,-496.05,-325.34,-435.91,-306.84
2297.0,-483.05,-325.34,-422.91,-305.84
2306.9,-469.05,-324.34,-409.91,-304.84
2316.8,-457.05,-322.34,-399.91,-303.84
2326.7,-443.05,-320.34,-395.91,-306.84
2336.5,-432.05,-317.34,-397.91,-312.84
2346.4,-430.05,-316.34,-397.91,-318.84
2356.3,-427.05,-318.34,-399.91,-320.84
2366.2,-428.05,-317.34,-397.91,-323.84
2376.1,-432.05,-320.34,-397.91,-324.84
2386.0,-439.05,-321.34,-395.91,-324.84
2395.8,-450.05,-325.34,-394.91,-325.84
2405.7,-458.05,-329.34,-395.91,-323.84
2415.6,-475.05,-334.34,-392.91,-324.84
2425.5,-488.05,-339.34,-399.91,-326.84
2435.4,-500.05,-344.34,-399.91,-323.84
2445.3,-510.05,-347.34,-397.91,-322.84
2455.2,-519.05,-350.34,-398.91,-322.84
2465.0,-527.05,-352.34,-397.91,-320.84
2474.9,-534.05,-354.34,-393.91,-317.84
2484.8,-538.05,-353.34,-392.91,-315.84
2494.7,-532.05,-347.34,-387.91,-311.84
2504.6,-519.05,-339.34,-378.91,-303.84
2514.5,-505.05,-329.34,-371.91,-299.84
2524.4,-490.05,-321.34,-364.91,-294.84
2534.2,-475.05,-313.34,-355.91,-286.84
2544.1,-469.05,-309.34,-344.91,-281.84
2554.0,-460.05,-306.34,-335.91,-276.84
2563.9,-454.05,-300.34,-325.91,-268.84
2573.8,-443.05,-292.34,-320.91,-263.84
2583.7,-430.05,-283.34,-314.91,-260.84
2593.6,-416.05,-274.34,-308.91,-255.84
2603.4,-398.05,-264.34,-303.91,-251.84
2613.3,-385.05,-254.34,-299.91,-249.84
2623.2,-374.05,-245.34,-293.91,-244.84
2633.1,-366.05,-240.34,-286.91,-239.84
2643.0,-362.05,-237.34,-284.91,-236.84
2652.9,-360.05,-236.34,-282.91,-235.84
2662.8,-361.05,-233.34,-281.91,-233.84
2672.6,-356.05,-231.34,-282.91,-233.84
2682.5,-356.05,-231.34,-281.91,-230.84
2692.4,-359.05,-230.34,-281.91,-231.84
2702.3,-359.05,-230.34,-279.91,-229.84
2712.2,-366.05,-233.34,-279.91,-227.84
2722.1,-366.05,-233.34,-277.91,-226.84
2732.0,-363.05,-233.34,-277.91,-225.84
2741.8,-363.05,-233.34,-277.91,-225.84
2751.7,-328.05,-222.34,-280.91,-224.84
2761.6,-328.05,-222.34,-280.91,-224.84
2771.5,-274.05,-198.34,-269.91,-219.84
2781.4,-274.05,-198.34,-269.91,-219.84
2791.3,-237.05,-185.34,-229.91,-208.84
2801.2,-237.05,-185.34,-229.91,-208.84
2811.0,-217.05,-175.34,-187.91,-194.84
2820.9,-217.05,-175.34,-187.91,-194.84
2830.8,-203.05,-170.34,-145.91,-181.84
2840.7,-191.05,-163.34,-145.91,-181.84
2850.6,-183.05,-160.34,-115.91,-171.84
2860.5,-174.05,-155.34,-115.91,-171.84
2870.4,-167.05,-153.34,-90.905,-162.84
2880.2,-162.05,-153.34,-90.905,-162.84
2890.1,-159.05,-151.34,-79.905,-159.84
2900.0,-158.05,-149.34,-79.905,-159.84
2909.9,-160.05,-149.34,-77.905,-156.84
2919.8,-163.05,-148.34,-77.905,-156.84
2929.7,-163.05,-147.34,-81.905,-159.84
2939.6,-163.05,-145.34,-81.905,-159.84
2949.4,-164.05,-146.34,-86.905,-161.84
2959.3,-166.05,-145.34,-92.905,-164.84
2969.2,-164.05,-147.34,-96.905,-166.84
2979.1,-164.05,-144.34,-103.91,-168.84
2989.0,-160.05,-143.34,-108.91,-170.84
2998.9,-157.05,-140.34,-115.91,-174.84
3008.8,-155.05,-136.34,-122.91,-175.84
3018.6,-154.05,-135.34,-124.91,-176.84
3028.5,-154.05,-132.34,-128.91,-176.84
3038.4,-152.05,-131.34,-133.91,-176.84
3048.3,-151.05,-129.34,-137.91,-177.84
3058.2,-149.05,-125.34,-138.91,-177.84
3068.1,-151.05,-125.34,-143.91,-179.84
3078.0,-148.05,-123.34,-144.91,-179.84
3087.8,-150.05,-123.34,-146.91,-179.84
3097.7,-150.05,-121.34,-147.91,-178.84
3107.6,-152.05,-121.34,-146.91,-179.84
3117.5,-152.05,-120.34,-149.91,-178.84
3127.4,-156.05,-119.34,-150.91,-178.84
3137.3,-159.05,-119.34,-152.91,-179.84
3147.2,-166.05,-121.34,-155.91,-178.84
3157.0,-172.05,-123.34,-159.91,-182.84
3166.9,-177.05,-123.34,-165.91,-185.84
3176.8,-184.05,-124.34,-170.91,-188.84
3186.7,-192.05,-126.34,-178.91,-191.84
3196.6,-199.05,-129.34,-182.91,-193.84
3206.5,-209.05,-132.34,-188.91,-195.84
3216.4,-219.05,-136.34,-194.91,-196.84
3226.2,-229.05,-141.34,-200.91,-199.84
3236.1,-238.05,-146.34,-205.91,-199.84
3246.0,-243.05,-149.34,-208.91,-202.84
3255.9,-236.05,-148.34,-217.91,-203.84
3265.8,-230.05,-150.34,-221.91,-204.84
3275.7,-209.05,-144.34,-219.91,-204.84
3285.6,-184.05,-134.34,-216.91,-202.84
3295.4,-163.05,-126.34,-189.91,-194.84
3305.3,-148.05,-122.34,-171.91,-187.84
3315.2,-138.05,-118.34,-149.91,-181.84
3325.1,-130.05,-117.34,-127.91,-173.84
3335.0,-120.05,-112.34,-107.91,-167.84
3344.9,-111.05,-109.34,-91.905,-162.84
3354.8,-102.05,-104.34,-76.905,-159.84
3364.6,-95.049,-102.34,-66.905,-154.84
3374.5,-89.049,-100.34,-60.905,-154.84
3384.4,-84.049,-100.34,-53.905,-150.84
3394.3,-84.049,-100.34,-46.905,-150.84
3404.2,-78.049,-96.344,-46.905,-147.84
3414.1,-78.049,-96.344,-44.905,-145.84
3424.0,-73.049,-92.344,-47.905,-147.84
3433.8,-73.049,-92.344,-49.905,-147.84
3443.7,-69.049,-89.344,-55.905,-148.84
3453.6,-69.049,-89.344,-61.905,-150.84
3463.5,-61.049,-83.344,-71.905,-154.84
3473.4,-61.049,-83.344,-79.905,-157.84
3483.3,-48.049,-72.344,-90.905,-161.84
3493.2,-48.049,-72.344,-95.905,-164.84
3503.0,-36.049,-64.344,-105.91,-167.84
3512.9,-36.049,-64.344,-111.91,-169.84
3522.8,-24.049,-56.344,-117.91,-170.84
3532.7,-24.049,-56.344,-125.91,-174.84
3542.6,-23.049,-55.344,-128.91,-176.84
3552.5,-23.049,-51.344,-132.91,-175.84
3562.4,-18.049,-50.344,-136.91,-177.84
3572.2,-16.049,-47.344,-142.91,-179.84
3582.1,-19.049,-46.344,-147.91,-181.84
3592.0,-18.049,-45.344,-155.91,-183.84
3601.9,-18.049,-44.344,-162.91,-187.84
3611.8,-18.049,-43.344,-170.91,-189.84
3621.7,-20.049,-43.344,-177.91,-194.84
3631.6,-21.049,-42.344,-185.91,-196.84
3641.4,-21.049,-40.344,-193.91,-199.84
3651.3,-25.049,-41.344,-203.91,-203.84
3661.2,-27.049,-42.344,-210.91,-205.84
3671.1,-33.049,-41.344,-217.91,-207.84
3681.0,-31.049,-40.344,-225.91,-213.84
3690.9,-36.049,-39.344,-234.91,-215.84
3700.8,-38.049,-40.344,-243.91,-217.84
3710.6,-42.049,-41.344,-251.91,-222.84
3720.5,-46.049,-41.344,-257.91,-225.84
3730.4,-51.049,-41.344,-265.91,-228.84
3740.3,-54.049,-41.344,-272.91,-230.84
3750.2,-62.049,-45.344,-277.91,-231.84
3760.1,-68.049,-48.344,-286.91,-236.84
3770.0,-67.049,-48.344,-292.91,-237.84
3779.8,-49.049,-41.344,-297.91,-238.84
3789.7,-27.049,-34.344,-297.91,-238.84
3799.6,-5.0494,-24.344,-290.91,-234.84
3809.5,16.951,-14.344,-290.91,-234.84
3819.4,35.951,-5.3445,-252.91,-223.84
3829.3,49.951,1.6555,-252.91,-223.84
3839.2,62.951,5.6555,-218.91,-212.84
3849.0,69.951,7.6555,-218.91,-212.84
3858.9,72.951,10.656,-193.91,-204.84
3868.8,79.951,14.656,-193.91,-204.84
3878.7,86.951,18.656,-182.91,-202.84
3888.6,90.951,19.656,-182.91,-202.84
3898.5,92.951,20.656,-176.91,-200.84
3908.4,93.951,22.656,-176.91,-200.84
3918.2,91.951,22.656,-190.91,-209.84
3928.1,89.951,22.656,-190.91,-209.84
3938.0,85.951,20.656,-226.91,-227.84
3947.9,82.951,19.656,-226.91,-227.84
3957.8,78.951,18.656,-293.91,-266.84
3967.7,74.951,16.656,-293.91,-266.84
3977.6,72.951,14.656,-384.91,-321.84
3987.4,72.951,13.656,-384.91,-321.84
3997.3,68.951,12.656,-470.91,-374.84
4007.2,66.951,15.656,-470.91,-374.84
4017.1,67.951,14.656,-522.91,-404.84
4027.0,64.951,11.656,-522.91,-404.84
4036.9,61.951,12.656,-536.91,-412.84
4046.8,58.951,11.656,-547.91,-418.84
4056.6,54.951,10.656,-552.91,-421.84
4066.5,49.951,6.6555,-556.91,-422.84
4076.4,42.951,2.6555,-554.91,-419.84
4086.3,37.951,1.6555,-552.91,-418.84
4096.2,31.951,0.65555,-547.91,-412.84
4106.1,31.951,0.65555,-539.91,-408.84
4116.0,23.951,-5.3445,-530.91,-401.84
4125.8,23.951,-5.3445,-516.91,-391.84
4135.7,12.951,-10.344,-505.91,-382.84
4145.6,12.951,-10.344,-490.91,-372.84
4155.5,2.9506,-13.344,-474.91,-359.84
4165.4,2.9506,-13.344,-457.91,-348.84
4175.3,-10.049,-19.344,-441.91,-337.84
4185.2,-10.049,-19.344,-426.91,-325.84
4195.0,-21.049,-21.344,-411.91,-314.84
4204.9,-21.049,-21.344,-394.91,-301.84
4214.8,-34.049,-25.344,-377.91,-290.84
4224.7,-34.049,-25.344,-361.91,-278.84
4234.6,-49.049,-33.344,-348.91,-270.84
4244.5,-49.049,-33.344,-342.91,-263.84
4254.4,-54.049,-35.344,-336.91,-259.84
4264.2,-63.049,-40.344,-338.91,-257.84
4274.1,-73.049,-43.344,-336.91,-254.84
4284.0,-80.049,-47.344,-333.91,-251.84
4293.9,-77.049,-45.344,-331.91,-249.84
4303.8,-65.049,-43.344,-330.91,-246.84
4313.7,-50.049,-39.344,-328.91,-245.84
4323.6,-29.049,-33.344,-325.91,-241.84
4333.4,-7.0494,-24.344,-308.91,-235.84
4343.3,6.9506,-17.344,-281.91,-223.84
4353.2,16.951,-14.344,-254.91,-213.84
4363.1,21.951,-14.344,-227.91,-203.84
4373.0,22.951,-15.344,-203.91,-193.84
4382.9,25.951,-13.344,-183.91,-185.84
4392.8,26.951,-13.344,-166.91,-178.84
4402.6,27.951,-14.344,-153.91,-173.84
4412.5,29.951,-14.344,-143.91,-169.84
4422.4,29.951,-13.344,-138.91,-168.84
4432.3,29.951,-13.344,-132.91,-165.84
4442.2,29.951,-13.344,-129.91,-164.84
4452.1,21.951,-14.344,-129.91,-162.84
4462.0,15.951,-15.344,-132.91,-161.84
4471.8,10.951,-17.344,-135.91,-162.84
4481.7,5.9506,-18.344,-141.91,-162.84
4491.6,1.9506,-20.344,-144.91,-165.84
4501.5,-0.049433,-20.344,-149.91,-164.84
4511.4,1.9506,-18.344,-154.91,-165.84
4521.3,1.9506,-17.344,-163.91,-169.84
4531.2,7.9506,-13.344,-171.91,-174.84
4541.0,15.951,-7.3445,-180.91,-176.84
4550.9,25.951,-0.34445,-184.91,-180.84
4560.8,34.951,3.6555,-190.91,-181.84
4570.7,38.951,8.6555,-193.91,-184.84
4580.6,45.951,15.656,-203.91,-188.84
4590.5,54.951,20.656,-210.91,-193.84
4600.4,64.951,29.656,-217.91,-197.84
4610.2,76.951,39.656,-226.91,-202.84
4620.1,90.951,50.656,-230.91,-203.84
4630.0,103.95,59.656,-236.91,-207.84
4639.9,115.95,67.656,-242.91,-209.84
4649.8,126.95,78.656,-244.91,-210.84
4659.7,136.95,88.656,-247.91,-211.84
4669.6,145.95,95.656,-254.91,-214.84
4679.4,153.95,101.66,-254.91,-213.84
4689.3,153.95,106.66,-257.91,-215.84
4699.2,160.95,114.66,-261.91,-216.84
4709.1,167.95,121.66,-265.91,-218.84
4719.0,171.95,128.66,-271.91,-220.84
4728.9,173.95,132.66,-278.91,-222.84
4738.8,171.95,135.66,-285.91,-225.84
4748.6,169.95,136.66,-291.91,-229.84
4758.5,164.95,137.66,-302.91,-233.84
4768.4,154.95,132.66,-307.91,-235.84
4778.3,144.95,129.66,-314.91,-238.84
4788.2,135.95,125.66,-322.91,-240.84
4798.1,134.95,127.66,-332.91,-244.84
4807.9,158.95,134.66,-338.91,-248.84
4817.8,158.95,134.66,-340.91,-248.84
4827.7,208.95,152.66,-345.91,-249.84
4837.6,208.95,152.66,-347.91,-248.84
4847.5,248.95,166.66,-334.91,-244.84
4857.4,248.95,166.66,-334.91,-244.84
4867.3,266.95,171.66,-305.91,-236.84
4877.2,266.95,171.66,-305.91,-236.84
4887.0,275.95,174.66,-273.91,-224.84
4896.9,275.95,174.66,-273.91,-224.84
4906.8,276.95,172.66,-246.91,-216.84
4916.7,276.95,172.66,-246.91,-216.84
4926.6,274.95,171.66,-223.91,-205.84
4936.5,274.95,171.66,-223.91,-205.84
4946.3,270.95,170.66,-207.91,-197.84
4956.2,270.95,170.66,-207.91,-197.84
4966.1,263.95,169.66,-202.91,-194.84
4976.0,258.95,166.66,-202.91,-194.84
4985.9,254.95,167.66,-204.91,-195.84
4995.8,253.95,165.66,-204.91,-195.84
5005.7,254.95,168.66,-210.91,-196.84
5015.5,258.95,169.66,-210.91,-196.84
5025.4,263.95,173.66,-220.91,-201.84
5035.3,269.95,177.66,-220.91,-201.84
5045.2,276.95,180.66,-225.91,-201.84
5055.1,281.95,184.66,-225.91,-201.84
5065.0,289.95,188.66,-230.91,-200.84
5074.9,293.95,191.66,-230.91,-202.84
5084.7,298.95,195.66,-233.91,-202.84
5094.6,299.95,197.66,-233.91,-201.84
5104.5,299.95,197.66,-233.91,-200.84
5114.4,300.95,198.66,-234.91,-200.84
5124.3,301.95,198.66,-234.91,-199.84
5134.2,299.95,199.66,-233.91,-198.84
5144.1,299.95,199.66,-234.91,-198.84
5153.9,296.95,202.66,-237.91,-200.84
5163.8,292.95,200.66,-236.91,-198.84
5173.7,293.95,200.66,-236.91,-198.84
5183.6,290.95,199.66,-234.91,-197.84
5193.5,287.95,200.66,-236.91,-196.84
5203.4,286.95,199.66,-235.91,-198.84
5213.3,282.95,199.66,-237.91,-198.84
5223.1,280.95,198.66,-239.91,-198.84
5233.0,276.95,198.66,-242.91,-200.84
5242.9,270.95,196.66,-243.91,-200.84
5252.8,263.95,196.66,-246.91,-200.84
5262.7,257.95,194.66,-247.91,-201.84
5272.6,248.95,188.66,-247.91,-201.84
5282.5,239.95,186.66,-248.91,-200.84
5292.3,231.95,182.66,-247.91,-199.84
5302.2,228.95,181.66,-250.91,-201.84
5312.1,242.95,185.66,-250.91,-200.84
5322.0,263.95,190.66,-252.91,-202.84
5331.9,291.95,200.66,-252.91,-201.84
5341.8,313.95,210.66,-252.91,-198.84
5351.7,332.95,214.66,-245.91,-196.84
5361.5,345.95,218.66,-227.91,-189.84
5371.4,356.95,220.66,-211.91,-184.84
5381.3,366.95,222.66,-190.91,-177.84
5391.2,370.95,224.66,-172.91,-171.84
5401.1,371.95,221.66,-154.91,-164.84
5411.0,371.95,220.66,-139.91,-160.84
5420.9,364.95,215.66,-125.91,-156.84
5430.7,357.95,210.66,-116.91,-153.84
5440.6,353.95,206.66,-106.91,-149.84
5450.5,345.95,203.66,-101.91,-148.84
5460.4,340.95,202.66,-98.905,-147.84
5470.3,334.95,199.66,-96.905,-145.84
5480.2,324.95,192.66,-95.905,-146.84
5490.1,314.95,191.66,-99.905,-147.84
5499.9,310.95,189.66,-105.91,-149.84
5509.8,311.95,192.66,-112.91,-152.84
5519.7,310.95,192.66,-120.91,-156.84
5529.6,310.95,192.66,-130.91,-159.84
5539.5,318.95,197.66,-135.91,-161.84
5549.4,318.95,197.66,-146.91,-165.84
5559.3,329.95,204.66,-149.91,-166.84
5569.1,329.95,204.66,-155.91,-168.84
5579.0,338.95,209.66,-159.91,-168.84
5588.9,338.95,209.66,-164.91,-170.84
5598.8,342.95,211.66,-169.91,-170.84
5608.7,342.95,211.66,-170.91,-171.84
5618.6,352.95,217.66,-174.91,-172.84
5628.5,352.95,217.66,-176.91,-172.84
5638.3,367.95,226.66,-178.91,-173.84
5648.2,367.95,226.66,-180.91,-173.84
5658.1,382.95,237.66,-184.91,-173.84
5668.0,382.95,237.66,-186.91,-174.84
5677.9,393.95,244.66,-191.91,-174.84
5687.8,403.95,249.66,-195.91,-175.84
5697.7,413.95,256.66,-196.91,-174.84
5707.5,427.95,266.66,-200.91,-176.84
5717.4,437.95,272.66,-202.91,-176.84
5727.3,449.95,280.66,-203.91,-177.84
5737.2,459.95,287.66,-206.91,-177.84
5747.1,466.95,291.66,-209.91,-176.84
5757.0,472.95,295.66,-209.91,-177.84
5766.9,479.95,300.66,-210.91,-175.84
5776.7,482.95,304.66,-215.91,-175.84
5786.6,488.95,309.66,-214.91,-175.84
5796.5,494.95,313.66,-214.91,-174.84
5806.4,507.95,320.66,-218.91,-174.84
5816.3,533.95,331.66,-221.91,-174.84
5826.2,560.95,341.66,-222.91,-175.84
5836.1,588.95,352.66,-221.91,-173.84
5845.9,616.95,362.66,-207.91,-168.84
5855.8,643.95,373.66,-183.91,-158.84
5865.7,662.95,381.66,-163.91,-151.84
5875.6,680.95,387.66,-137.91,-142.84
5885.5,693.95,393.66,-117.91,-135.84
5895.4,710.95,400.66,-100.91,-130.84
5905.3,725.95,408.66,-88.905,-126.84
5915.1,736.95,414.66,-78.905,-123.84
5925.0,747.95,419.66,-78.905,-123.84
5934.9,753.95,422.66,-65.905,-120.84
5944.8,757.95,424.66,-65.905,-120.84
5954.7,763.95,426.66,-55.905,-117.84
5964.6,768.95,430.66,-55.905,-117.84
5974.5,767.95,429.66,-58.905,-119.84
5984.3,766.95,430.66,-58.905,-119.84
5994.2,762.95,430.66,-71.905,-123.84
6004.1,761.95,430.66,-71.905,-123.84
6014.0,758.95,431.66,-90.905,-130.84
6023.9,756.95,430.66,-90.905,-130.84
6033.8,755.95,433.66,-113.91,-139.84
6043.7,753.95,434.66,-113.91,-139.84
6053.5,752.95,434.66,-136.91,-149.84
6063.4,750.95,434.66,-136.91,-149.84
6073.3,750.95,435.66,-159.91,-158.84
6083.2,747.95,433.66,-159.91,-158.84
6093.1,744.95,432.66,-173.91,-163.84
6103.0,738.95,430.66,-173.91,-163.84
6112.9,735.95,427.66,-180.91,-167.84
6122.7,728.95,426.66,-180.91,-167.84
6132.6,725.95,426.66,-185.91,-166.84
6142.5,720.95,425.66,-185.91,-166.84
6152.4,717.95,423.66,-188.91,-166.84
6162.3,711.95,422.66,-188.91,-166.84
6172.2,708.95,421.66,-191.91,-165.84
6182.1,701.95,420.66,-193.91,-165.84
6191.9,694.95,418.66,-195.91,-165.84
6201.8,686.95,416.66,-197.91,-167.84
6211.7,678.95,414.66,-197.91,-168.84
6221.6,668.95,409.66,-200.91,-168.84
6231.5,658.95,405.66,-202.91,-167.84
6241.4,658.95,405.66,-206.91,-169.84
6251.3,641.95,398.66,-210.91,-169.84
6261.1,641.95,398.66,-215.91,-172.84
6271.0,621.95,391.66,-215.91,-172.84
6280.9,621.95,391.66,-221.91,-173.84
6290.8,594.95,380.66,-228.91,-175.84
6300.7,594.95,380.66,-231.91,-176.84
6310.6,577.95,370.66,-233.91,-176.84
6320.5,577.95,370.66,-238.91,-177.84
6330.3,597.95,373.66,-240.91,-177.84
6340.2,597.95,373.66,-242.91,-178.84
6350.1,617.95,377.66,-241.91,-176.84
6360.0,617.95,377.66,-219.91,-167.84
6369.9,627.95,379.66,-198.91,-161.84
6379.8,627.95,379.66,-177.91,-154.84
6389.7,628.95,375.66,-155.91,-145.84
6399.5,628.95,374.66,-134.91,-138.84
6409.4,628.95,374.66,-117.91,-133.84
6419.3,634.95,378.66,-105.91,-128.84
6429.2,638.95,379.66,-95.905,-126.84
6439.1,640.95,379.66,-86.905,-124.84
6449.0,640.95,379.66,-81.905,-121.84
6458.9,641.95,379.66,-77.905,-120.84
6468.7,638.95,379.66,-74.905,-120.84
6478.6,642.95,380.66,-77.905,-120.84
6488.5,637.95,379.66,-80.905,-123.84
6498.4,632.95,378.66,-87.905,-126.84
6508.3,629.95,378.66,-97.905,-129.84
6518.2,624.95,377.66,-106.91,-133.84
6528.1,621.95,377.66,-118.91,-137.84
6537.9,621.95,378.66,-128.91,-140.84
6547.8,624.95,381.66,-137.91,-143.84
6557.7,625.95,382.66,-142.91,-146.84
6567.6,625.95,384.66,-148.91,-148.84
6577.5,629.95,385.66,-155.91,-150.84
6587.4,632.95,387.66,-162.91,-152.84
6597.3,638.95,394.66,-164.91,-153.84
6607.1,644.95,396.66,-163.91,-153.84
6617.0,648.95,401.66,-164.91,-154.84
6626.9,655.95,405.66,-165.91,-153.84
6636.8,659.95,409.66,-164.91,-149.84
6646.7,664.95,414.66,-163.91,-149.84
6656.6,672.95,418.66,-163.91,-148.84
6666.5,675.95,422.66,-163.91,-147.84
6676.3,679.95,424.66,-164.91,-148.84
6686.2,681.95,425.66,-165.91,-146.84
6696.1,684.95,428.66,-167.91,-147.84
6706.0,685.95,433.66,-171.91,-148.84
6715.9,690.95,434.66,-171.91,-148.84
6725.8,694.95,439.66,-173.91,-148.84
6735.7,695.95,440.66,-174.91,-148.84
6745.5,697.95,444.66,-177.91,-150.84
6755.4,701.95,449.66,-178.91,-150.84
6765.3,703.95,450.66,-183.91,-151.84
6775.2,704.95,453.66,-189.91,-153.84
6785.1,706.95,456.66,-189.91,-154.84
6795.0,706.95,459.66,-193.91,-153.84
6804.9,706.95,462.66,-199.91,-156.84
6814.7,704.95,462.66,-203.91,-158.84
6824.6,700.95,461.66,-204.91,-158.84
6834.5,709.95,467.66,-210.91,-161.84
6844.4,731.95,474.66,-215.91,-161.84
6854.3,752.95,483.66,-215.91,-160.84
6864.2,775.95,494.66,-213.91,-159.84
6874.1,796.95,502.66,-197.91,-153.84
6883.9,813.95,510.66,-177.91,-145.84
6893.8,828.95,518.66,-159.91,-138.84
6903.7,840.95,521.66,-137.91,-132.84
6913.6,844.95,525.66,-117.91,-125.84
6923.5,850.95,525.66,-105.91,-119.84
6933.4,854.95,529.66,-95.905,-118.84
6943.3,861.95,533.66,-87.905,-116.84
6953.1,861.95,533.66,-85.905,-115.84
6963.0,879.95,541.66,-85.905,-117.84
6972.9,879.95,541.66,-85.905,-117.84
6982.8,884.95,546.66,-91.905,-119.84
6992.7,884.95,546.66,-91.905,-119.84
7002.6,881.95,546.66,-104.91,-125.84
7012.5,881.95,546.66,-104.91,-125.84
7022.3,879.95,549.66,-128.91,-136.84
7032.2,879.95,549.66,-128.91,-136.84
7042.1,875.95,547.66,-151.91,-146.84
7052.0,875.95,547.66,-151.91,-146.84
7061.9,875.95,548.66,-170.91,-155.84
7071.8,875.95,548.66,-170.91,-155.84
7081.7,868.95,547.66,-184.91,-161.84
7091.5,868.95,547.66,-184.91,-161.84
7101.4,865.95,546.66,-194.91,-163.84
7111.3,866.95,547.66,-194.91,-163.84
7121.2,860.95,543.66,-200.91,-165.84
7131.1,853.95,541.66,-200.91,-165.84
7141.0,848.95,540.66,-207.91,-168.84
7150.9,844.95,539.66,-207.91,-168.84
7160.7,839.95,539.66,-215.91,-169.84
7170.6,832.95,538.66,-215.91,-169.84
7180.5,828.95,536.66,-223.91,-171.84
7190.4,825.95,536.66,-223.91,-171.84
7200.3,818.95,535.66,-226.91,-172.84
7210.2,811.95,534.66,-230.91,-174.84
7220.1,807.95,531.66,-237.91,-176.84
7229.9,796.95,528.66,-239.91,-179.84
7239.8,792.95,527.66,-248.91,-180.84
7249.7,784.95,523.66,-252.91,-181.84
7259.6,775.95,518.66,-257.91,-183.84
7269.5,765.95,517.66,-259.91,-185.84
7279.4,757.95,512.66,-265.91,-186.84
7289.3,747.95,507.66,-269.91,-185.84
7299.1,738.95,502.66,-272.91,-186.84
7309.0,727.95,498.66,-272.91,-186.84
7318.9,713.95,492.66,-273.91,-186.84
7328.8,700.95,484.66,-275.91,-187.84
7338.7,682.95,476.66,-276.91,-186.84
7348.6,669.95,468.66,-278.91,-186.84
7358.4,662.95,464.66,-279.91,-186.84
7368.3,662.95,462.66,-281.91,-184.84
7378.2,666.95,458.66,-281.91,-185.84
7388.1,672.95,456.66,-277.91,-181.84
7398.0,681.95,457.66,-274.91,-180.84
7407.9,690.95,456.66,-254.91,-171.84
7417.8,690.95,455.66,-233.91,-163.84
7427.7,689.95,451.66,-210.91,-154.84
7437.5,681.95,444.66,-187.91,-147.84
7447.4,674.95,439.66,-165.91,-137.84
7457.3,665.95,432.66,-149.91,-129.84
7467.2,658.95,425.66,-138.91,-125.84
7477.1,648.95,420.66,-130.91,-123.84
7487.0,634.95,410.66,-127.91,-122.84
7496.8,618.95,401.66,-127.91,-121.84
7506.7,603.95,393.66,-124.91,-120.84
7516.6,590.95,384.66,-122.91,-121.84
7526.5,574.95,379.66,-126.91,-121.84
7536.4,559.95,369.66,-133.91,-124.84
7546.3,547.95,363.66,-141.91,-127.84
7556.2,535.95,358.66,-154.91,-133.84
7566.0,524.95,350.66,-173.91,-143.84
7575.9,513.95,347.66,-199.91,-157.84
7585.8,504.95,339.66,-227.91,-173.84
7595.7,493.95,335.66,-254.91,-190.84
7605.6,485.95,331.66,-285.91,-208.84
7615.5,476.95,325.66,-314.91,-226.84
7625.4,466.95,318.66,-335.91,-241.84
7635.2,454.95,313.66,-351.91,-250.84
7645.1,444.95,308.66,-362.91,-259.84
7655.0,433.95,302.66,-373.91,-264.84
7664.9,433.95,302.66,-384.91,-272.84
7674.8,408.95,288.66,-396.91,-279.84
7684.7,408.95,288.66,-406.91,-287.84
7694.6,383.95,276.66,-416.91,-294.84
7704.4,383.95,276.66,-427.91,-298.84
7714.3,356.95,261.66,-434.91,-303.84
7724.2,356.95,261.66,-438.91,-306.84
7734.1,332.95,247.66,-444.91,-309.84
7744.0,332.95,247.66,-445.91,-307.84
7753.9,306.95,235.66,-446.91,-306.84
7763.8,306.95,235.66,-446.91,-304.84
7773.6,284.95,225.66,-446.91,-302.84
7783.5,284.95,225.66,-439.91,-298.84
7793.4,266.95,217.66,-435.91,-292.84
7803.3,266.95,217.66,-432.91,-289.84
7813.2,254.95,213.66,-429.91,-283.84
7823.1,245.95,207.66,-425.91,-282.84
7833.0,232.95,204.66,-423.91,-282.84
7842.8,220.95,196.66,-428.91,-282.84
7852.7,208.95,191.66,-429.91,-283.84
7862.6,196.95,184.66,-435.91,-283.84
7872.5,186.95,180.66,-435.91,-281.84
7882.4,177.95,177.66,-437.91,-281.84
7892.3,173.95,173.66,-439.91,-281.84
7902.2,182.95,175.66,-439.91,-277.84
7912.0,193.95,179.66,-433.91,-274.84
7921.9,216.95,189.66,-426.91,-270.84
7931.8,238.95,195.66,-408.91,-261.84
7941.7,250.95,198.66,-381.91,-250.84
7951.6,254.95,197.66,-354.91,-237.84
7961.5,259.95,199.66,-324.91,-225.84
7971.4,263.95,200.66,-297.91,-210.84
7981.2,265.95,199.66,-274.91,-200.84
7991.1,262.95,196.66,-251.91,-191.84
8001.0,261.95,195.66,-238.91,-182.84
8010.9,254.95,191.66,-225.91,-175.84
8020.8,251.95,189.66,-214.91,-169.84
8030.7,244.95,184.66,-204.91,-163.84
8040.6,238.95,182.66,-204.91,-163.84
8050.4,226.95,176.66,-202.91,-159.84
8060.3,216.95,171.66,-202.91,-159.84
8070.2,203.95,167.66,-205.91,-156.84
8080.1,194.95,160.66,-205.91,-156.84
8090.0,185.95,158.66,-216.91,-156.84
8099.9,181.95,155.66,-216.91,-156.84
8109.8,178.95,153.66,-224.91,-157.84
8119.6,174.95,150.66,-224.91,-157.84
8129.5,170.95,148.66,-227.91,-154.84
8139.4,164.95,146.66,-227.91,-154.84
8149.3,160.95,144.66,-223.91,-151.84
8159.2,156.95,142.66,-223.91,-151.84
8169.1,148.95,137.66,-216.91,-146.84
8179.0,143.95,133.66,-216.91,-146.84
8188.8,137.95,132.66,-205.91,-136.84
8198.7,129.95,128.66,-205.91,-136.84
8208.6,122.95,123.66,-192.91,-128.84
8218.5,114.95,119.66,-192.91,-128.84
8228.4,105.95,114.66,-185.91,-123.84
8238.3,97.951,111.66,-185.91,-123.84
8248.2,91.951,107.66,-180.91,-117.84
8258.0,84.951,106.66,-180.91,-117.84
8267.9,80.951,103.66,-177.91,-113.84
8277.8,72.951,100.66,-177.91,-113.84
8287.7,62.951,96.656,-174.91,-112.84
8297.6,54.951,92.656,-174.91,-109.84
8307.5,46.951,91.656,-174.91,-109.84
8317.4,38.951,87.656,-175.91,-109.84
8327.2,30.951,85.656,-176.91,-109.84
8337.1,21.951,80.656,-181.91,-111.84
8347.0,13.951,77.656,-183.91,-110.84
8356.9,4.9506,75.656,-184.91,-112.84
8366.8,-3.0494,70.656,-188.91,-111.84
8376.7,-13.049,65.656,-193.91,-112.84
8386.6,-25.049,60.656,-195.91,-114.84
8396.4,-25.049,60.656,-198.91,-115.84
8406.3,-21.049,56.656,-201.91,-116.84
8416.2,-21.049,56.656,-203.91,-115.84
8426.1,19.951,69.656,-204.91,-113.84
8436.0,19.951,69.656,-206.91,-115.84
8445.9,46.951,76.656,-200.91,-111.84
8455.8,46.951,76.656,-181.91,-106.84
8465.6,52.951,72.656,-162.91,-99.84
8475.5,52.951,72.656,-140.91,-89.84
8485.4,51.951,65.656,-121.91,-83.84
8495.3,51.951,65.656,-105.91,-78.84
8505.2,46.951,58.656,-91.905,-72.84
8515.1,46.951,58.656,-78.905,-67.84
8525.0,39.951,53.656,-64.905,-62.84
8534.8,32.951,49.656,-52.905,-57.84
8544.7,30.951,48.656,-42.905,-53.84
8554.6,25.951,43.656,-32.905,-49.84
8564.5,17.951,39.656,-29.905,-48.84
8574.4,11.951,36.656,-26.905,-47.84
8584.3,2.9506,34.656,-25.905,-46.84
8594.2,-6.0494,29.656,-27.905,-46.84
8604.0,-11.049,28.656,-30.905,-48.84
8613.9,-15.049,26.656,-33.905,-48.84
8623.8,-16.049,25.656,-37.905,-49.84
8633.7,-14.049,26.656,-37.905,-48.84
8643.6,-13.049,26.656,-38.905,-48.84
8653.5,-16.049,23.656,-38.905,-49.84
8663.4,-18.049,22.656,-39.905,-47.84
8673.2,-15.049,24.656,-37.905,-46.84
8683.1,-17.049,23.656,-36.905,-47.84
8693.0,-20.049,21.656,-36.905,-46.84
8702.9,-20.049,22.656,-35.905,-47.84
8712.8,-20.049,22.656,-36.905,-46.84
8722.7,-22.049,19.656,-34.905,-46.84
8732.6,-22.049,20.656,-34.905,-47.84
8742.4,-22.049,21.656,-32.905,-44.84
8752.3,-25.049,20.656,-31.905,-44.84
8762.2,-25.049,20.656,-31.905,-44.84
8772.1,-29.049,18.656,-28.905,-42.84
8782.0,-34.049,17.656,-29.905,-42.84
8791.9,-37.049,16.656,-29.905,-41.84
8801.8,-40.049,17.656,-30.905,-40.84
8811.6,-41.049,15.656,-33.905,-41.84
8821.5,-47.049,15.656,-35.905,-40.84
8831.4,-49.049,12.656,-38.905,-42.84
8841.3,-55.049,10.656,-43.905,-43.84
8851.2,-61.049,7.6555,-42.905,-42.84
8861.1,-66.049,6.6555,-46.905,-43.84
8871.0,-71.049,6.6555,-51.905,-44.84
8880.8,-81.049,1.6555,-53.905,-46.84
8890.7,-84.049,0.65555,-56.905,-45.84
8900.6,-84.049,1.6555,-60.905,-46.84
8910.5,-76.049,3.6555,-63.905,-46.84
8920.4,-57.049,9.6555,-67.905,-47.84
8930.3,-37.049,17.656,-69.905,-48.84
8940.2,-5.0494,29.656,-69.905,-48.84
8950.0,18.951,39.656,-55.905,-42.84
8959.9,31.951,44.656,-36.905,-37.84
8969.8,44.951,51.656,-19.905,-29.84
8979.7,55.951,52.656,1.0948,-21.84
8989.6,66.951,58.656,20.095,-16.84
8999.5,76.951,63.656,31.095,-11.84
9009.4,86.951,67.656,42.095,-8.8399
9019.2,93.951,70.656,51.095,-6.8399
9029.1,96.951,70.656,57.095,-5.8399
9039.0,100.95,74.656,62.095,-5.8399
9048.9,103.95,74.656,63.095,-5.8399
9058.8,106.95,77.656,63.095,-5.8399
9068.7,108.95,78.656,63.095,-6.8399
9078.6,111.95,80.656,58.095,-8.8399
9088.4,109.95,80.656,56.095,-9.8399
9098.3,106.95,79.656,51.095,-10.84
9108.2,106.95,79.656,51.095,-10.84
9118.1,104.95,79.656,35.095,-19.84
9128.0,104.95,79.656,35.095,-19.84
9137.9,104.95,82.656,22.095,-23.84
9147.8,104.95,82.656,22.095,-23.84
9157.6,105.95,84.656,11.095,-27.84
9167.5,105.95,84.656,11.095,-27.84
9177.4,104.95,86.656,2.0948,-30.84
9187.3,104.95,86.656,2.0948,-30.84
9197.2,100.95,87.656,-1.9052,-30.84
9207.1,100.95,87.656,-1.9052,-30.84
9217.0,95.951,86.656,-1.9052,-29.84
9226.8,95.951,86.656,-1.9052,-29.84
9236.7,93.951,86.656,-4.9052,-30.84
9246.6,89.951,85.656,-4.9052,-30.84
9256.5,84.951,83.656,-5.9052,-28.84
9266.4,83.951,84.656,-5.9052,-28.84
9276.3,79.951,84.656,-7.9052,-30.84
9286.2,75.951,83.656,-7.9052,-30.84
9296.0,71.951,83.656,-12.905,-30.84
9305.9,72.951,83.656,-12.905,-30.84
9315.8,67.951,82.656,-17.905,-32.84
9325.7,63.951,81.656,-21.905,-33.84
9335.6,58.951,82.656,-24.905,-34.84
9345.5,53.951,82.656,-24.905,-33.84
9355.4,53.951,81.656,-23.905,-33.84
9365.2,44.951,79.656,-22.905,-32.84
9375.1,39.951,75.656,-20.905,-30.84
9385.0,32.951,74.656,-17.905,-29.84
9394.9,28.951,71.656,-19.905,-27.84
9404.8,20.951,70.656,-23.905,-27.84
9414.7,21.951,71.656,-24.905,-27.84
9424.6,32.951,75.656,-27.905,-28.84
9434.4,45.951,80.656,-30.905,-29.84
9444.3,63.951,84.656,-30.905,-28.84
9454.2,87.951,95.656,-29.905,-26.84
9464.1,106.95,103.66,-9.9052,-19.84
9474.0,120.95,109.66,15.095,-9.8399
9483.9,129.95,110.66,39.095,-1.8399
9493.8,136.95,115.66,63.095,8.1601
9503.6,144.95,115.66,83.095,15.16
9513.5,152.95,119.66,106.09,23.16
9523.4,158.95,120.66,119.09,27.16
9533.3,163.95,122.66,130.09,29.16
9543.2,169.95,122.66,138.09,33.16
9553.1,172.95,124.66,142.09,32.16
9563.0,175.95,123.66,141.09,33.16
9572.8,178.95,126.66,139.09,31.16
9582.7,178.95,127.66,137.09,30.16
9592.6,177.95,127.66,131.09,27.16
9602.5,173.95,127.66,121.09,24.16
9612.4,170.95,124.66,111.09,19.16
9622.3,166.95,125.66,101.09,16.16
9632.2,162.95,125.66,88.095,11.16
9642.0,159.95,125.66,80.095,7.1601
9651.9,155.95,123.66,72.095,5.1601
9661.8,152.95,122.66,63.095,2.1601
9671.7,150.95,121.66,53.095,-1.8399
9681.6,149.95,122.66,44.095,-5.8399
9691.5,148.95,118.66,35.095,-7.8399
9701.4,144.95,120.66,31.095,-10.84
9711.2,144.95,122.66,23.095,-13.84
9721.1,138.95,120.66,19.095,-14.84
9731.0,134.95,119.66,13.095,-15.84
9740.9,130.95,115.66,6.0948,-19.84
9750.8,126.95,114.66,0.094846,-19.84
9760.7,123.95,113.66,-2.9052,-21.84
9770.6,120.95,113.66,-6.9052,-24.84
9780.4,115.95,112.66,-9.9052,-25.84
9790.3,108.95,109.66,-12.905,-24.84
9800.2,103.95,107.66,-13.905,-24.84
9810.1,101.95,108.66,-15.905,-24.84
9820.0,101.95,108.66,-18.905,-24.84
9829.9,90.951,104.66,-19.905,-23.84
9839.8,90.951,104.66,-18.905,-23.84
9849.6,78.951,101.66,-20.905,-23.84
9859.5,78.951,101.66,-24.905,-22.84
9869.4,66.951,96.656,-27.905,-26.84
9879.3,66.951,96.656,-31.905,-26.84
9889.2,51.951,93.656,-34.905,-28.84
9899.1,51.951,93.656,-38.905,-29.84
9908.9,36.951,86.656,-43.905,-31.84
9918.8,36.951,86.656,-51.905,-34.84
9928.7,28.951,82.656,-55.905,-37.84
9938.6,28.951,82.656,-59.905,-37.84
9948.5,35.951,84.656,-64.905,-38.84
9958.4,48.951,85.656,-64.905,-38.84
9968.3,64.951,91.656,-63.905,-36.84
9978.2,85.951,98.656,-46.905,-29.84
9988.0,106.95,107.66,-25.905,-23.84
9997.9,118.95,110.66,-3.9052,-13.84
10008.0,126.95,114.66,19.095,-4.8399
10018.0,136.95,116.66,40.095,3.1601
10028.0,144.95,120.66,60.095,10.16
10038.0,150.95,119.66,72.095,14.16
10047.0,157.95,124.66,81.095,16.16
10057.0,160.95,125.66,89.095,19.16
10067.0,165.95,126.66,93.095,20.16
10077.0,169.95,128.66,98.095,22.16
10087.0,169.95,129.66,102.09,23.16
10097.0,169.95,129.66,100.09,23.16
10107.0,167.95,128.66,99.095,22.16
10117.0,164.95,127.66,92.095,20.16
10126.0,161.95,126.66,88.095,18.16
10136.0,160.95,126.66,80.095,15.16
10146.0,159.95,128.66,70.095,12.16
10156.0,160.95,129.66,65.095,10.16
10166.0,160.95,130.66,58.095,6.1601
10176.0,161.95,132.66,58.095,6.1601
10186.0,162.95,133.66,44.095,1.1601
10196.0,165.95,135.66,44.095,1.1601
10206.0,168.95,139.66,34.095,-1.8399
10215.0,169.95,138.66,34.095,-1.8399
10225.0,170.95,141.66,30.095,-3.8399
10235.0,169.95,142.66,30.095,-3.8399
10245.0,170.95,141.66,23.095,-5.8399
10255.0,168.95,143.66,23.095,-5.8399
10265.0,168.95,144.66,23.095,-4.8399
10275.0,167.95,144.66,23.095,-4.8399
10285.0,165.95,144.66,21.095,-4.8399
10295.0,165.95,143.66,21.095,-4.8399
10304.0,166.95,145.66,17.095,-4.8399
10314.0,165.95,145.66,17.095,-4.8399
10324.0,161.95,147.66,11.095,-7.8399
10334.0,161.95,145.66,11.095,-7.8399
10344.0,159.95,146.66,2.0948,-9.8399
10354.0,156.95,146.66,2.0948,-9.8399
10364.0,154.95,146.66,-3.9052,-12.84
10374.0,153.95,146.66,-3.9052,-12.84
10384.0,150.95,145.66,-14.905,-15.84
10393.0,146.95,144.66,-14.905,-15.84
10403.0,142.95,143.66,-21.905,-17.84
10413.0,138.95,142.66,-21.905,-17.84
10423.0,132.95,140.66,-24.905,-19.84
10433.0,129.95,139.66,-31.905,-21.84
10443.0,124.95,138.66,-35.905,-22.84
10453.0,121.95,138.66,-40.905,-25.84
10463.0,126.95,140.66,-44.905,-24.84
10472.0,143.95,144.66,-49.905,-26.84
10482.0,162.95,150.66,-49.905,-26.84
10492.0,186.95,159.66,-53.905,-25.84
10502.0,206.95,168.66,-53.905,-25.84
10512.0,223.95,172.66,-36.905,-18.84
10522.0,232.95,174.66,-20.905,-11.84
10532.0,232.95,174.66,-2.9052,-6.8399
10542.0,248.95,176.66,11.095,-2.8399
10552.0,248.95,176.66,27.095,1.1601
10561.0,253.95,177.66,39.095,6.1601
10571.0,253.95,177.66,45.095,7.1601
10581.0,255.95,176.66,49.095,7.1601
10591.0,255.95,176.66,49.095,7.1601
10601.0,250.95,173.66,47.095,6.1601
10611.0,250.95,173.66,46.095,5.1601
10621.0,240.95,168.66,43.095,1.1601
10631.0,240.95,168.66,35.095,-0.8399
10641.0,227.95,163.66,25.095,-5.8399
10650.0,227.95,163.66,16.095,-9.8399
10660.0,224.95,160.66,3.0948,-14.84
10670.0,219.95,158.66,-7.9052,-18.84
10680.0,215.95,157.66,-19.905,-22.84
10690.0,210.95,155.66,-28.905,-27.84
10700.0,206.95,155.66,-41.905,-32.84
10710.0,201.95,153.66,-52.905,-37.84
10720.0,200.95,151.66,-64.905,-42.84
10730.0,193.95,149.66,-75.905,-49.84
10739.0,191.95,147.66,-79.905,-49.84
10749.0,186.95,145.66,-88.905,-53.84
10759.0,181.95,145.66,-91.905,-55.84
10769.0,174.95,142.66,-95.905,-56.84
10779.0,171.95,140.66,-98.905,-57.84
10789.0,166.95,137.66,-100.91,-58.84
10799.0,160.95,135.66,-104.91,-61.84
10809.0,155.95,132.66,-107.91,-61.84
10818.0,146.95,129.66,-114.91,-65.84
10828.0,138.95,127.66,-124.91,-71.84
10838.0,130.95,121.66,-134.91,-77.84
10848.0,123.95,121.66,-152.91,-86.84
10858.0,116.95,117.66,-172.91,-100.84
10868.0,109.95,115.66,-198.91,-118.84
10878.0,103.95,111.66,-232.91,-141.84
10888.0,99.951,108.66,-270.91,-168.84
10898.0,89.951,105.66,-312.91,-195.84
10907.0,82.951,103.66,-350.91,-219.84
10917.0,72.951,100.66,-379.91,-237.84
10927.0,62.951,97.656,-402.91,-250.84
10937.0,54.951,93.656,-420.91,-262.84
10947.0,45.951,89.656,-435.91,-270.84
10957.0,34.951,84.656,-447.91,-278.84
10967.0,26.951,80.656,-456.91,-282.84
10977.0,18.951,77.656,-460.91,-283.84
10987.0,11.951,73.656,-466.91,-288.84
10996.0,14.951,75.656,-474.91,-291.84
11006.0,26.951,76.656,-478.91,-292.84
11016.0,43.951,83.656,-480.91,-291.84
11026.0,65.951,89.656,-476.91,-288.84
11036.0,84.951,96.656,-469.91,-283.84
11046.0,96.951,97.656,-444.91,-275.84
11056.0,104.95,99.656,-419.91,-265.84
11066.0,110.95,99.656,-391.91,-253.84
11076.0,113.95,100.66,-364.91,-240.84
11085.0,116.95,101.66,-336.91,-226.84
11095.0,117.95,99.656,-309.91,-213.84
11105.0,117.95,97.656,-284.91,-200.84
11115.0,116.95,93.656,-265.91,-189.84
11125.0,113.95,92.656,-245.91,-177.84
11135.0,112.95,93.656,-227.91,-164.84
11145.0,106.95,90.656,-206.91,-152.84
11155.0,104.95,87.656,-190.91,-140.84
11164.0,98.951,85.656,-180.91,-130.84
11174.0,92.951,82.656,-172.91,-123.84
11184.0,87.951,80.656,-165.91,-117.84
11194.0,85.951,80.656,-161.91,-111.84
11204.0,81.951,78.656,-156.91,-104.84
11214.0,79.951,79.656,-152.91,-99.84
11224.0,76.951,78.656,-151.91,-94.84
11234.0,74.951,76.656,-145.91,-90.84
11244.0,74.951,76.656,-145.91,-90.84
11253.0,68.951,73.656,-135.91,-80.84
11263.0,68.951,73.656,-135.91,-80.84
11273.0,64.951,72.656,-119.91,-67.84
11283.0,64.951,72.656,-119.91,-67.84
11293.0,54.951,68.656,-103.91,-54.84
11303.0,54.951,68.656,-103.91,-54.84
11313.0,47.951,64.656,-87.905,-41.84
11323.0,47.951,64.656,-87.905,-41.84
11333.0,40.951,59.656,-72.905,-31.84
11342.0,40.951,59.656,-72.905,-31.84
11352.0,30.951,56.656,-63.905,-23.84
11362.0,30.951,56.656,-63.905,-23.84
11372.0,25.951,54.656,-58.905,-17.84
11382.0,18.951,51.656,-58.905,-17.84
11392.0,14.951,49.656,-58.905,-16.84
11402.0,8.9506,46.656,-58.905,-16.84
11412.0,5.9506,44.656,-62.905,-16.84
11422.0,-0.049433,44.656,-62.905,-16.84
11431.0,-6.0494,41.656,-68.905,-19.84
11441.0,-11.049,40.656,-68.905,-19.84
11451.0,-17.049,38.656,-72.905,-20.84
11461.0,-23.049,34.656,-75.905,-22.84
11471.0,-30.049,31.656,-78.905,-21.84
11481.0,-36.049,30.656,-79.905,-23.84
11491.0,-42.049,25.656,-82.905,-22.84
11501.0,-52.049,21.656,-86.905,-22.84
11510.0,-58.049,18.656,-91.905,-24.84
11520.0,-65.049,15.656,-95.905,-26.84
11530.0,-59.049,14.656,-98.905,-26.84
11540.0,-42.049,20.656,-98.905,-25.84
11550.0,-18.049,28.656,-98.905,-24.84
11560.0,0.95057,35.656,-98.905,-24.84
11570.0,10.951,36.656,-90.905,-21.84
11580.0,17.951,37.656,-69.905,-13.84
11590.0,20.951,37.656,-53.905,-6.8399
11599.0,24.951,37.656,-32.905,-0.8399
11609.0,22.951,33.656,-16.905,4.1601
11619.0,22.951,33.656,-2.9052,8.1601
11629.0,21.951,30.656,8.0948,12.16
11639.0,17.951,27.656,16.095,13.16
11649.0,9.9506,23.656,23.095,17.16
11659.0,0.95057,18.656,29.095,19.16
11669.0,-8.0494,12.656,36.095,22.16
11679.0,-23.049,5.6555,38.095,23.16
11688.0,-42.049,-4.3445,39.095,23.16
11698.0,-57.049,-12.344,38.095,23.16
11708.0,-76.049,-19.344,36.095,22.16
11718.0,-93.049,-28.344,33.095,22.16
11728.0,-104.05,-32.344,29.095,20.16
11738.0,-115.05,-37.344,24.095,18.16
11748.0,-127.05,-45.344,20.095,18.16
11758.0,-138.05,-50.344,20.095,19.16
11768.0,-146.05,-54.344,20.095,20.16
11777.0,-156.05,-57.344,21.095,20.16
11787.0,-163.05,-62.344,25.095,24.16
11797.0,-173.05,-68.344,27.095,24.16
11807.0,-184.05,-71.344,28.095,27.16
11817.0,-193.05,-75.344,31.095,29.16
11827.0,-203.05,-81.344,33.095,31.16
11837.0,-213.05,-85.344,37.095,32.16
11847.0,-224.05,-91.344,39.095,34.16
11856.0,-235.05,-96.344,44.095,35.16
11866.0,-244.05,-99.344,47.095,39.16
11876.0,-252.05,-102.34,48.095,40.16
11886.0,-262.05,-107.34,53.095,43.16
11896.0,-270.05,-109.34,55.095,44.16
11906.0,-278.05,-113.34,56.095,46.16
11916.0,-283.05,-116.34,58.095,47.16
11926.0,-291.05,-117.34,57.095,49.16
11936.0,-294.05,-119.34,58.095,48.16
11945.0,-303.05,-121.34,54.095,47.16
11955.0,-303.05,-121.34,51.095,46.16
11965.0,-312.05,-126.34,49.095,45.16
11975.0,-312.05,-126.34,48.095,44.16
11985.0,-321.05,-130.34,46.095,43.16
11995.0,-321.05,-130.34,41.095,42.16
12005.0,-333.05,-135.34,38.095,41.16
12015.0,-333.05,-135.34,35.095,42.16
12025.0,-337.05,-139.34,31.095,41.16
12034.0,-337.05,-139.34,31.095,41.16
12044.0,-299.05,-130.34,33.095,41.16
12054.0,-299.05,-130.34,33.095,43.16
12064.0,-238.05,-106.34,32.095,43.16
12074.0,-238.05,-106.34,43.095,48.16
12084.0,-219.05,-101.34,65.095,57.16
12094.0,-204.05,-97.344,87.095,61.16
12104.0,-190.05,-93.344,108.09,69.16
12114.0,-172.05,-90.344,122.09,76.16
12123.0,-159.05,-85.344,140.09,78.16
12133.0,-149.05,-82.344,147.09,82.16
12143.0,-141.05,-80.344,154.09,84.16
12153.0,-133.05,-79.344,158.09,85.16
12163.0,-128.05,-78.344,163.09,85.16
12173.0,-125.05,-77.344,164.09,86.16
12183.0,-118.05,-74.344,161.09,84.16
12193.0,-116.05,-75.344,157.09,82.16
12202.0,-114.05,-75.344,154.09,80.16
12212.0,-116.05,-75.344,147.09,76.16
12222.0,-119.05,-75.344,136.09,73.16
12232.0,-121.05,-77.344,126.09,68.16
12242.0,-122.05,-77.344,112.09,62.16
12252.0,-120.05,-76.344,99.095,58.16
12262.0,-117.05,-76.344,88.095,51.16
12272.0,-115.05,-74.344,74.095,47.16
12282.0,-114.05,-73.344,61.095,41.16
12291.0,-117.05,-74.344,61.095,41.16
12301.0,-117.05,-74.344,45.095,33.16
12311.0,-117.05,-72.344,45.095,33.16
12321.0,-118.05,-72.344,38.095,30.16
12331.0,-118.05,-73.344,38.095,30.16
12341.0,-121.05,-73.344,41.095,33.16
12351.0,-121.05,-73.344,41.095,33.16
12361.0,-124.05,-73.344,52.095,40.16
12371.0,-123.05,-73.344,52.095,40.16
12380.0,-123.05,-74.344,58.095,45.16
12390.0,-128.05,-74.344,58.095,45.16
12400.0,-131.05,-75.344,62.095,46.16
12410.0,-135.05,-75.344,62.095,46.16
12420.0,-137.05,-75.344,61.095,47.16
12430.0,-143.05,-75.344,61.095,47.16
12440.0,-143.05,-76.344,62.095,48.16
12450.0,-146.05,-76.344,62.095,48.16
12460.0,-148.05,-76.344,57.095,48.16
12469.0,-149.05,-76.344,57.095,48.16
12479.0,-157.05,-77.344,53.095,46.16
12489.0,-162.05,-79.344,53.095,46.16
12499.0,-165.05,-79.344,50.095,46.16
12509.0,-171.05,-81.344,50.095,46.16
12519.0,-179.05,-84.344,40.095,43.16
12529.0,-180.05,-84.344,40.095,43.16
12539.0,-178.05,-85.344,37.095,42.16
12548.0,-165.05,-80.344,35.095,41.16
12558.0,-148.05,-74.344,33.095,39.16
12568.0,-117.05,-61.344,28.095,39.16
12578.0,-91.049,-49.344,30.095,40.16
12588.0,-74.049,-43.344,44.095,46.16
12598.0,-60.049,-39.344,66.095,53.16
12608.0,-50.049,-35.344,83.095,60.16
12618.0,-42.049,-33.344,107.09,67.16
12628.0,-31.049,-27.344,128.09,76.16
12637.0,-20.049,-23.344,148.09,81.16
12647.0,-10.049,-20.344,163.09,86.16
12657.0,-4.0494,-17.344,173.09,90.16
12667.0,-4.0494,-17.344,181.09,92.16
12677.0,1.9506,-14.344,188.09,94.16
12687.0,1.9506,-14.344,193.09,96.16
12697.0,9.9506,-12.344,191.09,95.16
12707.0,9.9506,-12.344,188.09,93.16
12717.0,8.9506,-10.344,181.09,91.16
12726.0,8.9506,-10.344,175.09,88.16
12736.0,1.9506,-12.344,167.09,84.16
12746.0,1.9506,-12.344,160.09,80.16
12756.0,-5.0494,-13.344,150.09,75.16
12766.0,-5.0494,-13.344,137.09,71.16
12776.0,-8.0494,-14.344,127.09,66.16
12786.0,-8.0494,-14.344,118.09,61.16
12796.0,-8.0494,-13.344,107.09,57.16
12805.0,-7.0494,-12.344,98.095,54.16
12815.0,-8.0494,-13.344,89.095,50.16
12825.0,-8.0494,-12.344,84.095,48.16
12835.0,-9.0494,-11.344,78.095,44.16
12845.0,-9.0494,-12.344,70.095,42.16
12855.0,-12.049,-11.344,66.095,41.16
12865.0,-12.049,-11.344,65.095,41.16
12875.0,-13.049,-10.344,60.095,40.16
12885.0,-15.049,-11.344,57.095,40.16
12894.0,-20.049,-10.344,56.095,41.16
12904.0,-21.049,-10.344,56.095,40.16
12914.0,-22.049,-10.344,55.095,40.16
12924.0,-26.049,-11.344,59.095,42.16
12934.0,-28.049,-11.344,57.095,44.16
12944.0,-32.049,-12.344,57.095,43.16
12954.0,-35.049,-13.344,59.095,44.16
12964.0,-42.049,-15.344,57.095,43.16
12974.0,-45.049,-17.344,54.095,43.16
12983.0,-51.049,-16.344,53.095,41.16
12993.0,-59.049,-19.344,52.095,41.16
13003.0,-64.049,-21.344,49.095,40.16
13013.0,-70.049,-25.344,45.095,41.16
13023.0,-78.049,-26.344,44.095,41.16
13033.0,-87.049,-32.344,43.095,41.16
13043.0,-96.049,-34.344,41.095,40.16
13053.0,-98.049,-35.344,39.095,41.16
13063.0,-90.049,-34.344,37.095,39.16
13072.0,-80.049,-32.344,38.095,42.16
13082.0,-59.049,-25.344,40.095,45.16
13092.0,-35.049,-15.344,53.095,50.16
13102.0,-16.049,-8.3445,75.095,57.16
13112.0,-3.0494,-4.3445,97.095,65.16
13122.0,8.9506,-1.3445,122.09,75.16
13132.0,15.951,1.6555,144.09,82.16
13142.0,22.951,3.6555,167.09,90.16
13151.0,27.951,4.6555,180.09,94.16
13161.0,34.951,8.6555,191.09,100.16
13171.0,41.951,10.656,201.09,101.16
13181.0,44.951,10.656,209.09,103.16
13191.0,48.951,11.656,215.09,106.16
13201.0,48.951,13.656,216.09,106.16
13211.0,48.951,14.656,217.09,106.16
13221.0,48.951,14.656,215.09,105.16
13231.0,45.951,14.656,212.09,103.16
13240.0,42.951,12.656,204.09,102.16
13250.0,38.951,11.656,198.09,98.16
13260.0,36.951,9.6555,190.09,95.16
13270.0,33.951,8.6555,182.09,91.16
13280.0,31.951,8.6555,174.09,89.16
13290.0,30.951,7.6555,166.09,85.16
13300.0,27.951,5.6555,157.09,82.16
13310.0,25.951,4.6555,150.09,79.16
13320.0,20.951,5.6555,143.09,76.16
13329.0,18.951,2.6555,139.09,76.16
13339.0,15.951,1.6555,140.09,77.16
13349.0,16.951,2.6555,136.09,76.16
13359.0,12.951,-1.3445,138.09,76.16
13369.0,9.9506,-0.34445,136.09,77.16
13379.0,9.9506,-0.34445,136.09,77.16
13389.0,1.9506,-3.3445,135.09,77.16
13399.0,1.9506,-3.3445,135.09,77.16
13409.0,-7.0494,-7.3445,131.09,76.16
13418.0,-7.0494,-7.3445,131.09,76.16
13428.0,-14.049,-8.3445,127.09,76.16
13438.0,-14.049,-8.3445,127.09,76.16
13448.0,-21.049,-12.344,123.09,75.16
13458.0,-21.049,-12.344,123.09,75.16
13468.0,-33.049,-15.344,116.09,73.16
13478.0,-33.049,-15.344,116.09,73.16
13488.0,-41.049,-17.344,111.09,70.16
13497.0,-41.049,-17.344,111.09,70.16
13507.0,-45.049,-19.344,105.09,69.16
13517.0,-52.049,-22.344,105.09,69.16
13527.0,-59.049,-23.344,95.095,67.16
13537.0,-68.049,-28.344,95.095,67.16
13547.0,-70.049,-30.344,89.095,64.16
13557.0,-79.049,-33.344,89.095,64.16
13567.0,-87.049,-36.344,85.095,64.16
13577.0,-90.049,-38.344,85.095,64.16
13586.0,-79.049,-35.344,85.095,64.16
13596.0,-68.049,-34.344,86.095,64.16
13606.0,-49.049,-28.344,83.095,65.16
13616.0,-26.049,-19.344,92.095,67.16
13626.0,-10.049,-13.344,114.09,76.16
13636.0,2.9506,-7.3445,134.09,84.16
13646.0,11.951,-4.3445,156.09,91.16
13656.0,20.951,-2.3445,178.09,99.16
13666.0,26.951,-1.3445,198.09,107.16
13675.0,32.951,2.6555,213.09,112.16
13685.0,38.951,6.6555,224.09,115.16
13695.0,45.951,11.656,230.09,118.16
13705.0,46.951,10.656,232.09,117.16
13715.0,52.951,14.656,235.09,118.16
13725.0,54.951,15.656,237.09,118.16
13735.0,55.951,16.656,235.09,118.16
13745.0,54.951,15.656,230.09,117.16
13755.0,52.951,15.656,223.09,113.16
13764.0,51.951,16.656,213.09,110.16
13774.0,52.951,14.656,201.09,105.16
13784.0,50.951,17.656,193.09,102.16
13794.0,53.951,19.656,181.09,98.16
13804.0,53.951,20.656,172.09,93.16
13814.0,55.951,20.656,163.09,90.16
13824.0,56.951,22.656,152.09,86.16
13834.0,53.951,20.656,147.09,84.16
13843.0,53.951,21.656,140.09,83.16
13853.0,55.951,23.656,137.09,82.16
13863.0,55.951,22.656,135.09,81.16
13873.0,54.951,24.656,131.09,80.16
13883.0,52.951,23.656,130.09,79.16
13893.0,53.951,23.656,130.09,80.16
13903.0,50.951,22.656,132.09,80.16
13913.0,47.951,23.656,128.09,80.16
13923.0,44.951,24.656,127.09,80.16
13932.0,43.951,22.656,127.09,80.16
13942.0,41.951,20.656,124.09,79.16
13952.0,41.951,23.656,122.09,79.16
13962.0,37.951,22.656,118.09,79.16
13972.0,36.951,22.656,115.09,78.16
13982.0,32.951,20.656,111.09,76.16
13992.0,31.951,19.656,107.09,74.16
14002.0,25.951,19.656,102.09,73.16
14012.0,23.951,20.656,96.095,71.16
14021.0,17.951,17.656,93.095,70.16
14031.0,13.951,15.656,88.095,66.16
14041.0,9.9506,14.656,84.095,65.16
14051.0,1.9506,11.656,78.095,64.16
14061.0,-6.0494,9.6555,75.095,62.16
14071.0,-13.049,5.6555,67.095,59.16
14081.0,-22.049,4.6555,63.095,58.16
14091.0,-22.049,4.6555,56.095,57.16
14101.0,-23.049,1.6555,51.095,54.16
14110.0,-23.049,1.6555,47.095,53.16
14120.0,4.9506,8.6555,42.095,52.16
14130.0,4.9506,8.6555,37.095,50.16
14140.0,42.951,27.656,41.095,50.16
14150.0,42.951,27.656,50.095,51.16
14160.0,62.951,32.656,52.095,49.16
14170.0,62.951,32.656,50.095,42.16
14180.0,74.951,35.656,50.095,37.16
14189.0,74.951,35.656,38.095,22.16
14199.0,79.951,38.656,12.095,2.1601
14209.0,79.951,38.656,-17.905,-23.84
14219.0,80.951,39.656,-49.905,-46.84
14229.0,80.951,39.656,-81.905,-69.84
14239.0,78.951,34.656,-109.91,-92.84
14249.0,72.951,33.656,-141.91,-111.84
14259.0,71.951,33.656,-166.91,-129.84
14269.0,64.951,30.656,-194.91,-146.84
14278.0,56.951,27.656,-220.91,-163.84
14288.0,51.951,24.656,-245.91,-178.84
14298.0,46.951,21.656,-269.91,-191.84
14308.0,42.951,19.656,-291.91,-205.84
14318.0,37.951,16.656,-314.91,-216.84
14328.0,36.951,16.656,-335.91,-228.84
14338.0,30.951,14.656,-353.91,-238.84
14348.0,27.951,11.656,-373.91,-249.84
14358.0,22.951,8.6555,-388.91,-256.84
14367.0,16.951,6.6555,-399.91,-265.84
14377.0,15.951,5.6555,-408.91,-266.84
14387.0,8.9506,2.6555,-411.91,-268.84
14397.0,5.9506,-0.34445,-413.91,-269.84
14407.0,3.9506,-2.3445,-414.91,-269.84
14417.0,-3.0494,-2.3445,-416.91,-271.84
14427.0,-5.0494,-5.3445,-416.91,-271.84
14437.0,-11.049,-6.3445,-430.91,-279.84
14447.0,-14.049,-8.3445,-430.91,-279.84
14456.0,-19.049,-13.344,-440.91,-284.84
14466.0,-27.049,-16.344,-440.91,-284.84
14476.0,-33.049,-19.344,-440.91,-284.84
14486.0,-41.049,-22.344,-440.91,-284.84
14496.0,-47.049,-24.344,-442.91,-284.84
14506.0,-55.049,-27.344,-442.91,-284.84
14516.0,-60.049,-30.344,-447.91,-284.84
14526.0,-68.049,-35.344,-447.91,-284.84
14535.0,-73.049,-36.344,-458.91,-290.84
14545.0,-80.049,-42.344,-458.91,-290.84
14555.0,-90.049,-45.344,-470.91,-295.84
14565.0,-99.049,-49.344,-470.91,-295.84
14575.0,-108.05,-54.344,-476.91,-296.84
14585.0,-117.05,-57.344,-476.91,-296.84
14595.0,-124.05,-61.344,-476.91,-293.84
14605.0,-131.05,-66.344,-476.91,-293.84
14615.0,-142.05,-70.344,-481.91,-294.84
14624.0,-148.05,-72.344,-481.91,-294.84
14634.0,-144.05,-73.344,-483.91,-295.84
14644.0,-134.05,-70.344,-481.91,-292.84
14654.0,-113.05,-65.344,-471.91,-280.84
14664.0,-93.049,-56.344,-471.91,-280.84
14674.0,-82.049,-56.344,-459.91,-274.84
14684.0,-74.049,-52.344,-429.91,-261.84
14694.0,-69.049,-54.344,-401.91,-246.84
14704.0,-66.049,-53.344,-369.91,-232.84
14713.0,-64.049,-54.344,-331.91,-214.84
14723.0,-64.049,-56.344,-297.91,-198.84
14733.0,-66.049,-57.344,-261.91,-178.84
14743.0,-69.049,-60.344,-229.91,-161.84
14753.0,-75.049,-64.344,-195.91,-142.84
14763.0,-81.049,-69.344,-165.91,-122.84
14773.0,-88.049,-71.344,-135.91,-103.84
14783.0,-94.049,-74.344,-109.91,-86.84
14793.0,-104.05,-79.344,-93.905,-72.84
14802.0,-104.05,-79.344,-76.905,-61.84
14812.0,-117.05,-85.344,-66.905,-51.84
14822.0,-117.05,-85.344,-57.905,-42.84
14832.0,-130.05,-91.344,-51.905,-35.84
14842.0,-130.05,-91.344,-47.905,-29.84
14852.0,-141.05,-95.344,-42.905,-23.84
14862.0,-141.05,-95.344,-38.905,-17.84
14872.0,-152.05,-100.34,-35.905,-13.84
14881.0,-152.05,-100.34,-29.905,-7.8399
14891.0,-161.05,-106.34,-25.905,-2.8399
14901.0,-161.05,-106.34,-21.905,2.1601
14911.0,-175.05,-112.34,-14.905,6.1601
14921.0,-175.05,-112.34,-7.9052,15.16
14931.0,-189.05,-117.34,-0.90515,21.16
14941.0,-189.05,-117.34,9.0948,27.16
14951.0,-195.05,-122.34,18.095,33.16
14961.0,-203.05,-126.34,25.095,40.16
14970.0,-214.05,-131.34,33.095,46.16
14980.0,-223.05,-133.34,39.095,50.16
14990.0,-227.05,-136.34,44.095,54.16
15000.0,-237.05,-140.34,49.095,57.16
15010.0,-241.05,-143.34,50.095,60.16
15020.0,-244.05,-144.34,54.095,62.16
15030.0,-252.05,-144.34,60.095,67.16
15040.0,-254.05,-143.34,66.095,70.16
15050.0,-258.05,-146.34,68.095,72.16
15059.0,-263.05,-146.34,71.095,74.16
15069.0,-268.05,-148.34,73.095,75.16
15079.0,-274.05,-150.34,74.095,78.16
15089.0,-283.05,-153.34,78.095,81.16
15099.0,-291.05,-157.34,81.095,83.16
15109.0,-296.05,-159.34,79.095,84.16
15119.0,-302.05,-158.34,79.095,85.16
15129.0,-307.05,-157.34,81.095,86.16
15139.0,-305.05,-154.34,81.095,86.16
15148.0,-295.05,-145.34,79.095,86.16
15158.0,-269.05,-129.34,80.095,88.16
15168.0,-233.05,-111.34,86.095,92.16
15178.0,-186.05,-83.344,86.095,94.16
15188.0,-144.05,-63.344,94.095,97.16
15198.0,-122.05,-52.344,121.09,108.16
15208.0,-113.05,-47.344,144.09,116.16
15218.0,-103.05,-44.344,170.09,127.16
15227.0,-100.05,-42.344,193.09,135.16
15237.0,-104.05,-43.344,211.09,143.16
15247.0,-120.05,-50.344,226.09,147.16
15257.0,-143.05,-64.344,239.09,153.16
15267.0,-160.05,-75.344,250.09,155.16
15277.0,-172.05,-86.344,257.09,158.16
15287.0,-186.05,-94.344,263.09,160.16
15297.0,-200.05,-103.34,266.09,161.16
15307.0,-204.05,-108.34,267.09,161.16
15316.0,-209.05,-113.34,266.09,160.16
15326.0,-212.05,-118.34,261.09,157.16
15336.0,-217.05,-122.34,256.09,156.16
15346.0,-219.05,-125.34,247.09,153.16
15356.0,-220.05,-126.34,239.09,150.16
15366.0,-218.05,-128.34,234.09,148.16
15376.0,-220.05,-131.34,226.09,144.16
15386.0,-221.05,-133.34,217.09,142.16
15396.0,-222.05,-135.34,211.09,139.16
15405.0,-224.05,-135.34,206.09,136.16
15415.0,-229.05,-137.34,199.09,134.16
15425.0,-232.05,-139.34,194.09,132.16
15435.0,-236.05,-141.34,188.09,129.16
15445.0,-244.05,-143.34,183.09,128.16
15455.0,-251.05,-148.34,181.09,128.16
15465.0,-260.05,-152.34,179.09,126.16
15475.0,-271.05,-158.34,177.09,124.16
15485.0,-286.05,-170.34,174.09,123.16
15494.0,-304.05,-183.34,173.09,123.16
15504.0,-315.05,-194.34,168.09,120.16
15514.0,-315.05,-194.34,168.09,120.16
15524.0,-301.05,-190.34,162.09,117.16
15534.0,-301.05,-190.34,162.09,117.16
15544.0,-261.05,-171.34,157.09,116.16
15554.0,-261.05,-171.34,157.09,116.16
15564.0,-220.05,-151.34,148.09,113.16
15573.0,-220.05,-151.34,148.09,113.16
15583.0,-222.05,-154.34,141.09,109.16
15593.0,-222.05,-154.34,141.09,109.16
15603.0,-224.05,-154.34,134.09,108.16
15613.0,-224.05,-154.34,134.09,108.16
15623.0,-234.05,-154.34,123.09,103.16
15633.0,-234.05,-154.34,123.09,103.16
15643.0,-236.05,-149.34,115.09,100.16
15653.0,-236.05,-149.34,115.09,100.16
15662.0,-222.05,-140.34,105.09,98.16
15672.0,-200.05,-130.34,105.09,98.16
15682.0,-170.05,-111.34,100.09,95.16
15692.0,-128.05,-89.344,100.09,95.16
15702.0,-93.049,-71.344,114.09,100.16
15712.0,-68.049,-58.344,133.09,106.16
15722.0,-47.049,-47.344,151.09,111.16
15732.0,-29.049,-35.344,170.09,119.16
15742.0,-11.049,-26.344,189.09,127.16
15751.0,3.9506,-18.344,206.09,130.16
15761.0,24.951,-8.3445,219.09,132.16
15771.0,39.951,0.65555,225.09,134.16
15781.0,52.951,4.6555,233.09,136.16
15791.0,63.951,12.656,236.09,135.16
15801.0,77.951,17.656,237.09,135.16
15811.0,84.951,22.656,235.09,133.16
15821.0,89.951,24.656,233.09,133.16
15831.0,94.951,28.656,226.09,129.16
15840.0,90.951,28.656,220.09,127.16
15850.0,90.951,29.656,214.09,124.16
15860.0,92.951,28.656,205.09,119.16
15870.0,88.951,29.656,197.09,116.16
15880.0,89.951,30.656,189.09,114.16
15890.0,92.951,33.656,181.09,109.16
15900.0,93.951,34.656,177.09,107.16
15910.0,96.951,34.656,167.09,105.16
15919.0,97.951,35.656,162.09,103.16
15929.0,98.951,37.656,160.09,102.16
15939.0,97.951,37.656,156.09,99.16
15949.0,98.951,38.656,150.09,99.16
15959.0,96.951,38.656,146.09,98.16
15969.0,95.951,37.656,143.09,96.16
15979.0,95.951,38.656,140.09,96.16
15989.0,92.951,38.656,138.09,96.16
15999.0,92.951,39.656,134.09,95.16
16008.0,90.951,39.656,134.09,95.16
16018.0,88.951,37.656,132.09,94.16
16028.0,84.951,36.656,127.09,92.16
16038.0,80.951,35.656,124.09,92.16
16048.0,72.951,33.656,120.09,91.16
16058.0,69.951,32.656,115.09,88.16
16068.0,67.951,33.656,112.09,88.16
16078.0,62.951,32.656,112.09,89.16
16088.0,56.951,32.656,106.09,86.16
16097.0,53.951,31.656,100.09,84.16
16107.0,48.951,30.656,94.095,82.16
16117.0,48.951,32.656,89.095,82.16
16127.0,44.951,31.656,86.095,80.16
16137.0,34.951,26.656,80.095,78.16
16147.0,28.951,25.656,79.095,78.16
16157.0,24.951,22.656,76.095,77.16
16167.0,33.951,25.656,72.095,77.16
16177.0,45.951,28.656,72.095,78.16
16186.0,56.951,30.656,73.095,79.16
16196.0,80.951,42.656,77.095,81.16
16206.0,101.95,50.656,90.095,87.16
16216.0,110.95,51.656,109.09,93.16
16226.0,110.95,51.656,127.09,100.16
16236.0,124.95,56.656,145.09,105.16
16246.0,124.95,56.656,160.09,111.16
16256.0,134.95,60.656,174.09,114.16
16265.0,134.95,60.656,184.09,117.16
16275.0,143.95,64.656,192.09,118.16
16285.0,143.95,64.656,198.09,117.16
16295.0,143.95,58.656,205.09,120.16
16305.0,143.95,58.656,206.09,119.16
16315.0,134.95,54.656,207.09,118.16
16325.0,134.95,54.656,205.09,117.16
16335.0,124.95,49.656,199.09,112.16
16345.0,124.95,49.656,190.09,108.16
16354.0,120.95,49.656,180.09,105.16
16364.0,117.95,48.656,173.09,102.16
16374.0,112.95,47.656,164.09,97.16
16384.0,112.95,46.656,156.09,94.16
16394.0,111.95,47.656,144.09,89.16
16404.0,112.95,48.656,136.09,85.16
16414.0,108.95,47.656,126.09,82.16
16424.0,106.95,46.656,116.09,77.16
16434.0,102.95,45.656,109.09,75.16
16443.0,100.95,43.656,104.09,72.16
16453.0,97.951,43.656,99.095,72.16
16463.0,97.951,43.656,96.095,71.16
16473.0,95.951,42.656,94.095,70.16
16483.0,90.951,40.656,91.095,70.16
16493.0,89.951,41.656,90.095,69.16
16503.0,89.951,42.656,88.095,71.16
16513.0,84.951,42.656,87.095,70.16
16523.0,84.951,41.656,89.095,71.16
16532.0,80.951,39.656,90.095,71.16
16542.0,78.951,39.656,90.095,71.16
16552.0,75.951,38.656,103.09,81.16
16562.0,69.951,36.656,103.09,81.16
16572.0,63.951,35.656,108.09,85.16
16582.0,60.951,35.656,108.09,85.16
16592.0,57.951,34.656,108.09,86.16
16602.0,49.951,31.656,108.09,86.16
16611.0,43.951,28.656,101.09,85.16
16621.0,35.951,24.656,101.09,85.16
16631.0,27.951,21.656,93.095,82.16
16641.0,21.951,19.656,93.095,82.16
16651.0,6.9506,11.656,84.095,79.16
16661.0,-2.0494,7.6555,84.095,79.16
16671.0,-8.0494,6.6555,79.095,77.16
16681.0,-1.0494,8.6555,79.095,77.16
16691.0,6.9506,11.656,75.095,78.16
16700.0,20.951,15.656,75.095,78.16
16710.0,45.951,27.656,91.095,85.16
16720.0,63.951,33.656,91.095,85.16
16730.0,71.951,36.656,127.09,98.16
16740.0,80.951,37.656,127.09,98.16
16750.0,80.951,33.656,146.09,106.16
16760.0,77.951,32.656,166.09,112.16
16770.0,77.951,28.656,183.09,118.16
16780.0,75.951,26.656,194.09,120.16
16789.0,72.951,26.656,202.09,123.16
16799.0,71.951,23.656,206.09,124.16
16809.0,66.951,21.656,211.09,126.16
16819.0,61.951,19.656,213.09,127.16
16829.0,58.951,20.656,214.09,129.16
16839.0,52.951,16.656,213.09,129.16
16849.0,49.951,16.656,209.09,127.16
16859.0,44.951,15.656,203.09,127.16
16869.0,41.951,11.656,198.09,125.16
16878.0,38.951,13.656,191.09,123.16
16888.0,33.951,11.656,184.09,122.16
16898.0,33.951,9.6555,182.09,118.16
16908.0,29.951,7.6555,175.09,116.16
16918.0,26.951,8.6555,169.09,115.16
16928.0,22.951,4.6555,163.09,112.16
16938.0,22.951,4.6555,162.09,112.16
16948.0,18.951,2.6555,159.09,111.16
16957.0,18.951,2.6555,158.09,112.16
16967.0,11.951,3.6555,157.09,112.16
16977.0,11.951,3.6555,155.09,112.16
16987.0,3.9506,-2.3445,155.09,111.16
16997.0,3.9506,-2.3445,152.09,110.16
17007.0,-5.0494,-4.3445,151.09,110.16
17017.0,-5.0494,-4.3445,150.09,112.16
17027.0,-11.049,-9.3445,149.09,110.16
17037.0,-11.049,-9.3445,145.09,111.16
17046.0,-22.049,-11.344,145.09,110.16
17056.0,-22.049,-11.344,141.09,108.16
17066.0,-28.049,-13.344,140.09,107.16
17076.0,-33.049,-13.344,134.09,106.16
17086.0,-42.049,-16.344,132.09,107.16
17096.0,-48.049,-19.344,130.09,103.16
17106.0,-55.049,-22.344,127.09,103.16
17116.0,-63.049,-26.344,125.09,103.16
17126.0,-76.049,-30.344,124.09,101.16
17135.0,-91.049,-37.344,120.09,101.16
17145.0,-106.05,-44.344,115.09,99.16
17155.0,-117.05,-49.344,112.09,98.16
17165.0,-132.05,-58.344,108.09,98.16
17175.0,-148.05,-68.344,108.09,98.16
17185.0,-162.05,-72.344,106.09,98.16
17195.0,-162.05,-72.344,102.09,98.16
17205.0,-154.05,-70.344,103.09,97.16
17215.0,-140.05,-66.344,102.09,99.16
17224.0,-118.05,-55.344,106.09,100.16
17234.0,-102.05,-49.344,124.09,108.16
17244.0,-89.049,-44.344,142.09,116.16
17254.0,-76.049,-37.344,158.09,121.16
17264.0,-67.049,-33.344,172.09,127.16
17274.0,-55.049,-28.344,187.09,130.16
17284.0,-44.049,-22.344,194.09,133.16
17294.0,-38.049,-18.344,197.09,134.16
17303.0,-32.049,-15.344,199.09,134.16
17313.0,-28.049,-11.344,199.09,131.16
17323.0,-26.049,-9.3445,196.09,130.16
17333.0,-24.049,-7.3445,189.09,127.16
17343.0,-19.049,-4.3445,184.09,124.16
17353.0,-18.049,-3.3445,173.09,120.16
17363.0,-14.049,0.65555,163.09,116.16
17373.0,-8.0494,3.6555,153.09,112.16
17383.0,-5.0494,7.6555,143.09,108.16
17392.0,-2.0494,9.6555,133.09,103.16
17402.0,3.9506,12.656,122.09,99.16
17412.0,8.9506,14.656,112.09,96.16
17422.0,13.951,18.656,102.09,91.16
17432.0,15.951,20.656,93.095,88.16
17442.0,16.951,22.656,85.095,84.16
17452.0,20.951,23.656,80.095,83.16
17462.0,23.951,24.656,72.095,80.16
17472.0,22.951,22.656,70.095,78.16
17481.0,22.951,24.656,66.095,78.16
17491.0,23.951,22.656,58.095,75.16
17501.0,19.951,20.656,59.095,75.16
17511.0,15.951,17.656,56.095,75.16
17521.0,10.951,14.656,54.095,74.16
17531.0,9.9506,13.656,51.095,71.16
17541.0,2.9506,9.6555,48.095,72.16
17551.0,0.95057,9.6555,43.095,70.16
17561.0,-6.0494,4.6555,41.095,70.16
17570.0,-11.049,3.6555,37.095,69.16
17580.0,-15.049,-0.34445,35.095,67.16
17590.0,-21.049,-1.3445,31.095,66.16
17600.0,-27.049,-4.3445,29.095,68.16
17610.0,-33.049,-6.3445,27.095,65.16
17620.0,-39.049,-9.3445,22.095,65.16
17630.0,-45.049,-11.344,22.095,65.16
17640.0,-53.049,-16.344,16.095,62.16
17649.0,-53.049,-16.344,16.095,62.16
17659.0,-71.049,-23.344,10.095,61.16
17669.0,-71.049,-23.344,10.095,61.16
17679.0,-91.049,-35.344,0.094846,58.16
17689.0,-91.049,-35.344,0.094846,58.16
17699.0,-93.049,-35.344,-21.905,45.16
17709.0,-93.049,-35.344,-21.905,45.16
17719.0,-69.049,-28.344,-53.905,25.16
17729.0,-69.049,-28.344,-53.905,25.16
17738.0,-34.049,-15.344,-81.905,5.1601
17748.0,-34.049,-15.344,-81.905,5.1601
17758.0,-18.049,-11.344,-63.905,4.1601
17768.0,-18.049,-11.344,-63.905,4.1601
17778.0,-14.049,-12.344,-40.905,10.16
17788.0,-13.049,-12.344,-40.905,10.16
17798.0,-11.049,-14.344,-22.905,14.16
17808.0,-13.049,-16.344,-22.905,14.16
17818.0,-18.049,-18.344,-15.905,16.16
17827.0,-21.049,-22.344,-5.9052,18.16
17837.0,-26.049,-25.344,-2.9052,21.16
17847.0,-35.049,-27.344,4.0948,24.16
17857.0,-39.049,-29.344,7.0948,29.16
17867.0,-48.049,-36.344,13.095,33.16
17877.0,-56.049,-39.344,15.095,36.16
17887.0,-65.049,-44.344,18.095,38.16
17897.0,-71.049,-46.344,20.095,42.16
17907.0,-74.049,-49.344,21.095,44.16
17916.0,-79.049,-52.344,21.095,46.16
17926.0,-84.049,-52.344,23.095,47.16
17936.0,-87.049,-57.344,20.095,49.16
17946.0,-94.049,-59.344,18.095,51.16
17956.0,-98.049,-63.344,17.095,52.16
17966.0,-104.05,-65.344,18.095,54.16
17976.0,-109.05,-70.344,22.095,58.16
17986.0,-120.05,-76.344,25.095,62.16
17995.0,-131.05,-81.344,31.095,64.16
18005.0,-139.05,-84.344,35.095,69.16
18015.0,-150.05,-91.344,39.095,71.16
18025.0,-159.05,-96.344,41.095,75.16
18035.0,-169.05,-101.34,45.095,76.16
18045.0,-181.05,-106.34,47.095,78.16
18055.0,-193.05,-111.34,48.095,79.16
18065.0,-202.05,-117.34,48.095,82.16
18075.0,-214.05,-120.34,51.095,82.16
18084.0,-225.05,-127.34,49.095,83.16
18094.0,-235.05,-131.34,50.095,86.16
18104.0,-247.05,-134.34,51.095,86.16
18114.0,-258.05,-138.34,49.095,86.16
18124.0,-268.05,-144.34,48.095,86.16
18134.0,-281.05,-147.34,47.095,88.16
18144.0,-293.05,-153.34,46.095,87.16
18154.0,-305.05,-158.34,44.095,87.16
18164.0,-322.05,-164.34,42.095,87.16
18173.0,-334.05,-172.34,39.095,87.16
18183.0,-350.05,-178.34,38.095,86.16
18193.0,-361.05,-184.34,37.095,85.16
18203.0,-371.05,-187.34,32.095,86.16
18213.0,-368.05,-189.34,28.095,84.16
18223.0,-356.05,-184.34,29.095,86.16
18233.0,-336.05,-175.34,28.095,88.16
18243.0,-320.05,-170.34,28.095,88.16
18252.0,-309.05,-167.34,35.095,89.16
18262.0,-306.05,-167.34,52.095,98.16
18272.0,-303.05,-167.34,70.095,103.16
18282.0,-297.05,-165.34,93.095,112.16
18292.0,-296.05,-166.34,110.09,120.16
18302.0,-296.05,-164.34,123.09,124.16
18312.0,-298.05,-165.34,135.09,129.16
18322.0,-301.05,-169.34,145.09,131.16
18332.0,-304.05,-169.34,153.09,135.16
18341.0,-304.05,-169.34,158.09,136.16
18351.0,-316.05,-176.34,163.09,138.16
18361.0,-316.05,-176.34,165.09,140.16
18371.0,-330.05,-181.34,165.09,139.16
18381.0,-330.05,-181.34,158.09,135.16
18391.0,-341.05,-184.34,152.09,133.16
18401.0,-341.05,-184.34,146.09,132.16
18411.0,-347.05,-185.34,142.09,129.16
18421.0,-347.05,-185.34,133.09,126.16
18430.0,-349.05,-185.34,125.09,123.16
18440.0,-349.05,-185.34,120.09,120.16
18450.0,-351.05,-185.34,114.09,117.16
18460.0,-351.05,-185.34,110.09,116.16
18470.0,-351.05,-184.34,108.09,116.16
18480.0,-351.05,-184.34,107.09,115.16
18490.0,-352.05,-184.34,106.09,117.16
18500.0,-351.05,-183.34,107.09,117.16
18510.0,-353.05,-183.34,105.09,118.16
18519.0,-356.05,-185.34,107.09,118.16
18529.0,-357.05,-184.34,106.09,118.16
18539.0,-355.05,-183.34,108.09,118.16
18549.0,-358.05,-182.34,105.09,119.16
18559.0,-360.05,-183.34,104.09,118.16
18569.0,-361.05,-181.34,101.09,117.16
18579.0,-361.05,-181.34,102.09,118.16
18589.0,-361.05,-178.34,99.095,116.16
18598.0,-362.05,-179.34,97.095,117.16
18608.0,-360.05,-177.34,94.095,113.16
18618.0,-363.05,-178.34,90.095,113.16
18628.0,-368.05,-177.34,86.095,113.16
18638.0,-369.05,-178.34,85.095,112.16
18648.0,-372.05,-179.34,83.095,111.16
18658.0,-373.05,-178.34,83.095,111.16
18668.0,-375.05,-179.34,77.095,109.16
18678.0,-382.05,-182.34,77.095,109.16
18687.0,-386.05,-183.34,70.095,107.16
18697.0,-387.05,-182.34,70.095,107.16
18707.0,-382.05,-184.34,59.095,102.16
18717.0,-366.05,-180.34,59.095,102.16
18727.0,-341.05,-169.34,54.095,101.16
18737.0,-303.05,-153.34,54.095,101.16
18747.0,-275.05,-144.34,63.095,103.16
18757.0,-260.05,-139.34,63.095,103.16
18767.0,-247.05,-136.34,98.095,115.16
18776.0,-232.05,-132.34,98.095,115.16
18786.0,-219.05,-128.34,115.09,116.16
18796.0,-207.05,-125.34,115.09,116.16
18806.0,-195.05,-122.34,97.095,90.16
18816.0,-187.05,-120.34,97.095,90.16
18826.0,-180.05,-119.34,18.095,24.16
18836.0,-178.05,-118.34,18.095,24.16
18846.0,-171.05,-120.34,-63.905,-38.84
18856.0,-166.05,-116.34,-63.905,-38.84
18865.0,-162.05,-114.34,-94.905,-61.84
18875.0,-159.05,-114.34,-121.91,-82.84
18885.0,-160.05,-115.34,-148.91,-103.84
18895.0,-161.05,-113.34,-170.91,-117.84
18905.0,-157.05,-114.34,-181.91,-125.84
18915.0,-155.05,-110.34,-195.91,-132.84
18925.0,-149.05,-109.34,-207.91,-139.84
18935.0,-145.05,-107.34,-225.91,-149.84
18944.0,-143.05,-106.34,-248.91,-161.84
18954.0,-142.05,-104.34,-274.91,-174.84
18964.0,-139.05,-103.34,-297.91,-184.84
18974.0,-137.05,-103.34,-317.91,-193.84
18984.0,-135.05,-101.34,-338.91,-204.84
18994.0,-134.05,-100.34,-357.91,-211.84
19004.0,-134.05,-101.34,-372.91,-221.84
19014.0,-135.05,-101.34,-385.91,-227.84
19024.0,-136.05,-100.34,-396.91,-231.84
19033.0,-134.05,-100.34,-402.91,-236.84
19043.0,-139.05,-100.34,-413.91,-242.84
19053.0,-139.05,-100.34,-424.91,-249.84
19063.0,-142.05,-100.34,-437.91,-259.84
19073.0,-142.05,-100.34,-446.91,-264.84
19083.0,-145.05,-99.344,-451.91,-268.84
19093.0,-145.05,-99.344,-458.91,-272.84
19103.0,-149.05,-101.34,-462.91,-275.84
19113.0,-149.05,-101.34,-467.91,-276.84
19122.0,-155.05,-102.34,-469.91,-278.84
19132.0,-155.05,-102.34,-475.91,-280.84
19142.0,-163.05,-104.34,-479.91,-281.84
19152.0,-163.05,-104.34,-484.91,-281.84
19162.0,-170.05,-106.34,-490.91,-284.84
19172.0,-170.05,-106.34,-496.91,-287.84
19182.0,-180.05,-109.34,-502.91,-289.84
19192.0,-180.05,-109.34,-505.91,-288.84
19202.0,-180.05,-107.34,-507.91,-289.84
19211.0,-169.05,-107.34,-510.91,-288.84
19221.0,-156.05,-103.34,-504.91,-285.84
19231.0,-135.05,-97.344,-493.91,-277.84
19241.0,-103.05,-81.344,-473.91,-266.84
19251.0,-84.049,-75.344,-429.91,-245.84
19261.0,-72.049,-70.344,-390.91,-227.84
19271.0,-60.049,-66.344,-349.91,-205.84
19281.0,-51.049,-64.344,-304.91,-183.84
19290.0,-42.049,-60.344,-260.91,-160.84
19300.0,-34.049,-57.344,-216.91,-138.84
19310.0,-27.049,-53.344,-174.91,-119.84
19320.0,-20.049,-50.344,-137.91,-99.84
19330.0,-18.049,-52.344,-113.91,-87.84
19340.0,-18.049,-52.344,-100.91,-83.84
19350.0,-13.049,-50.344,-98.905,-83.84
19360.0,-12.049,-51.344,-109.91,-91.84
19370.0,-13.049,-49.344,-119.91,-99.84
19379.0,-14.049,-48.344,-128.91,-103.84
19389.0,-15.049,-49.344,-136.91,-109.84
19399.0,-20.049,-50.344,-143.91,-110.84
19409.0,-22.049,-50.344,-143.91,-110.84
19419.0,-22.049,-51.344,-150.91,-110.84
19429.0,-23.049,-48.344,-153.91,-108.84
19439.0,-22.049,-48.344,-154.91,-106.84
19449.0,-19.049,-47.344,-151.91,-103.84
19459.0,-21.049,-47.344,-146.91,-98.84
19468.0,-20.049,-46.344,-140.91,-92.84
19478.0,-23.049,-46.344,-127.91,-82.84
19488.0,-27.049,-47.344,-113.91,-71.84
19498.0,-27.049,-48.344,-95.905,-56.84
19508.0,-31.049,-49.344,-73.905,-43.84
19518.0,-32.049,-47.344,-50.905,-28.84
19528.0,-35.049,-50.344,-27.905,-12.84
19538.0,-38.049,-49.344,-5.9052,4.1601
19548.0,-40.049,-50.344,15.095,18.16
19557.0,-42.049,-51.344,32.095,31.16
19567.0,-45.049,-49.344,50.095,45.16
19577.0,-47.049,-50.344,62.095,52.16
19587.0,-52.049,-51.344,74.095,65.16
19597.0,-55.049,-51.344,86.095,72.16
19607.0,-58.049,-51.344,96.095,82.16
19617.0,-59.049,-51.344,101.09,88.16
19627.0,-63.049,-50.344,106.09,93.16
19636.0,-65.049,-54.344,112.09,97.16
19646.0,-70.049,-54.344,113.09,104.16
19656.0,-77.049,-56.344,118.09,108.16
19666.0,-82.049,-57.344,121.09,111.16
19676.0,-83.049,-58.344,125.09,115.16
19686.0,-93.049,-63.344,131.09,119.16
19696.0,-98.049,-65.344,137.09,125.16
19706.0,-92.049,-63.344,141.09,129.16
19716.0,-82.049,-60.344,150.09,135.16
19725.0,-73.049,-59.344,155.09,141.16
19735.0,-51.049,-49.344,164.09,146.16
19745.0,-27.049,-39.344,164.09,146.16
19755.0,-11.049,-34.344,215.09,168.16
19765.0,-11.049,-34.344,215.09,168.16
19775.0,6.9506,-29.344,269.09,189.16
19785.0,6.9506,-29.344,269.09,189.16
19795.0,17.951,-26.344,313.09,205.16
19805.0,17.951,-26.344,313.09,205.16
19814.0,34.951,-20.344,345.09,218.16
19824.0,34.951,-20.344,345.09,218.16
19834.0,40.951,-18.344,372.09,225.16
19844.0,40.951,-18.344,372.09,225.16
19854.0,44.951,-17.344,381.09,230.16
19864.0,44.951,-17.344,381.09,230.16
19874.0,44.951,-16.344,385.09,234.16
19884.0,44.951,-16.344,385.09,234.16
19894.0,38.951,-18.344,381.09,232.16
19903.0,38.951,-18.344,381.09,232.16
19913.0,33.951,-21.344,364.09,225.16
19923.0,28.951,-25.344,364.09,225.16
19933.0,24.951,-25.344,351.09,222.16
19943.0,22.951,-26.344,342.09,217.16
19953.0,21.951,-27.344,335.09,215.16
19963.0,18.951,-28.344,324.09,210.16
19973.0,13.951,-27.344,318.09,209.16
19982.0,14.951,-28.344,313.09,207.16
19992.0,10.951,-31.344,311.09,208.16
20002.0,7.9506,-32.344,312.09,206.16
20012.0,6.9506,-30.344,312.09,208.16
20022.0,4.9506,-31.344,313.09,209.16
20032.0,2.9506,-31.344,315.09,213.16
20042.0,1.9506,-31.344,319.09,215.16
20052.0,