t,carotid_880nm,carotid_660nm,brachial_880nm,brachial_660nm
3.1,-3.9129,8.5815,57.965,72.445
12.9,-6.9129,8.5815,56.965,71.445
22.8,-9.9129,7.5815,54.965,71.445
32.7,-13.913,4.5815,53.965,71.445
42.6,-18.913,3.5815,53.965,72.445
52.5,-21.913,0.58147,52.965,71.445
62.4,-22.913,2.5815,51.965,70.445
72.3,-25.913,0.58147,50.965,70.445
82.1,-26.913,-0.41853,49.965,69.445
92.0,-22.913,3.5815,49.965,69.445
101.9,-14.913,7.5815,49.965,71.445
111.8,-9.9129,10.581,49.965,71.445
121.7,-6.9129,11.581,46.965,70.445
131.6,-2.9129,11.581,46.965,70.445
141.5,-2.9129,11.581,48.965,70.445
151.3,2.0871,9.5815,48.965,70.445
161.2,2.0871,9.5815,60.965,74.445
171.1,8.0871,9.5815,60.965,74.445
181.0,8.0871,9.5815,70.965,76.445
190.9,14.087,12.581,70.965,76.445
200.8,14.087,12.581,84.965,81.445
210.7,25.087,17.581,84.965,81.445
220.5,25.087,17.581,93.965,83.445
230.4,35.087,19.581,93.965,83.445
240.3,35.087,19.581,99.965,84.445
250.2,39.087,22.581,99.965,84.445
260.1,39.087,22.581,101.97,84.445
270.0,47.087,24.581,101.97,84.445
279.9,47.087,24.581,102.97,84.445
289.7,47.087,24.581,102.97,84.445
299.6,47.087,24.581,105.97,85.445
309.5,49.087,25.581,101.97,82.445
319.4,52.087,25.581,100.97,84.445
329.3,55.087,29.581,100.97,83.445
339.2,56.087,27.581,98.965,82.445
349.1,59.087,28.581,97.965,80.445
358.9,61.087,30.581,96.965,80.445
368.8,62.087,30.581,94.965,79.445
378.7,63.087,30.581,90.965,78.445
388.6,64.087,31.581,88.965,78.445
398.5,64.087,30.581,87.965,76.445
408.4,63.087,31.581,85.965,75.445
418.3,65.087,30.581,82.965,75.445
428.1,63.087,31.581,82.965,75.445
438.0,62.087,30.581,80.965,73.445
447.9,63.087,30.581,79.965,71.445
457.8,62.087,31.581,79.965,72.445
467.7,63.087,31.581,76.965,72.445
477.6,61.087,29.581,76.965,71.445
487.5,60.087,29.581,72.965,70.445
497.3,58.087,29.581,72.965,70.445
507.2,57.087,29.581,71.965,69.445
517.1,57.087,29.581,71.965,67.445
527.0,54.087,28.581,66.965,66.445
536.9,52.087,28.581,65.965,65.445
546.8,50.087,26.581,63.965,64.445
556.7,50.087,25.581,61.965,63.445
566.5,48.087,25.581,59.965,63.445
576.4,44.087,24.581,59.965,60.445
586.3,44.087,25.581,56.965,61.445
596.2,42.087,24.581,53.965,61.445
606.1,41.087,24.581,51.965,61.445
616.0,37.087,23.581,48.965,61.445
625.9,37.087,23.581,48.965,60.445
635.7,35.087,21.581,46.965,60.445
645.6,32.087,21.581,44.965,60.445
655.5,29.087,19.581,41.965,58.445
665.4,24.087,19.581,41.965,58.445
675.3,23.087,19.581,40.965,59.445
685.2,22.087,17.581,40.965,58.445
695.1,19.087,17.581,42.965,59.445
704.9,17.087,15.581,39.965,58.445
714.8,14.087,14.581,40.965,58.445
724.7,12.087,14.581,39.965,58.445
734.6,7.0871,13.581,37.965,58.445
744.5,4.0871,12.581,35.965,59.445
754.4,2.0871,11.581,34.965,58.445
764.3,2.0871,12.581,33.965,58.445
774.1,5.0871,14.581,33.965,58.445
784.0,9.0871,18.581,33.965,57.445
793.9,17.087,20.581,32.965,58.445
803.8,21.087,21.581,31.965,57.445
813.7,26.087,23.581,31.965,58.445
823.6,29.087,22.581,32.965,58.445
833.5,31.087,22.581,35.965,60.445
843.3,35.087,21.581,42.965,61.445
853.2,38.087,21.581,46.965,63.445
863.1,43.087,23.581,53.965,64.445
873.0,48.087,26.581,59.965,66.445
882.9,53.087,28.581,66.965,67.445
892.8,61.087,31.581,71.965,69.445
902.7,66.087,33.581,74.965,70.445
912.5,71.087,35.581,81.965,72.445
922.4,73.087,35.581,84.965,72.445
932.3,79.087,38.581,87.965,74.445
942.2,82.087,37.581,90.965,74.445
952.1,86.087,39.581,92.965,74.445
962.0,88.087,39.581,90.965,74.445
971.9,90.087,39.581,93.965,74.445
981.7,92.087,39.581,95.965,75.445
991.6,92.087,39.581,95.965,74.445
1001.5,97.087,41.581,96.965,75.445
1011.4,97.087,41.581,96.965,74.445
1021.3,101.09,44.581,94.965,74.445
1031.2,101.09,44.581,91.965,70.445
1041.1,102.09,43.581,91.965,72.445
1050.9,102.09,43.581,87.965,72.445
1060.8,104.09,42.581,85.965,71.445
1070.7,104.09,42.581,85.965,70.445
1080.6,107.09,45.581,84.965,68.445
1090.5,107.09,45.581,83.965,70.445
1100.4,107.09,45.581,82.965,69.445
1110.3,107.09,45.581,81.965,68.445
1120.1,106.09,42.581,79.965,68.445
1130.0,106.09,42.581,78.965,68.445
1139.9,105.09,43.581,79.965,67.445
1149.8,105.09,43.581,79.965,67.445
1159.7,103.09,43.581,77.965,68.445
1169.6,102.09,43.581,76.965,66.445
1179.5,102.09,42.581,76.965,66.445
1189.3,101.09,42.581,71.965,65.445
1199.2,99.087,41.581,71.965,65.445
1209.1,95.087,40.581,68.965,63.445
1219.0,95.087,39.581,68.965,63.445
1228.9,91.087,39.581,65.965,61.445
1238.8,90.087,38.581,65.965,61.445
1248.7,87.087,37.581,61.965,60.445
1258.5,87.087,36.581,61.965,60.445
1268.4,85.087,36.581,57.965,61.445
1278.3,81.087,36.581,57.965,61.445
1288.2,80.087,35.581,55.965,59.445
1298.1,77.087,35.581,55.965,59.445
1308.0,76.087,33.581,50.965,57.445
1317.9,73.087,32.581,50.965,57.445
1327.7,71.087,30.581,46.965,57.445
1337.6,69.087,30.581,46.965,57.445
1347.5,66.087,30.581,47.965,57.445
1357.4,64.087,29.581,45.965,56.445
1367.3,60.087,27.581,44.965,56.445
1377.2,58.087,27.581,43.965,55.445
1387.1,55.087,24.581,38.965,55.445
1396.9,52.087,24.581,38.965,52.445
1406.8,50.087,23.581,35.965,54.445
1416.7,46.087,22.581,35.965,52.445
1426.6,45.087,22.581,34.965,54.445
1436.5,41.087,21.581,34.965,54.445
1446.4,37.087,19.581,31.965,54.445
1456.3,35.087,19.581,31.965,52.445
1466.1,30.087,18.581,30.965,52.445
1476.0,28.087,16.581,27.965,53.445
1485.9,26.087,16.581,26.965,51.445
1495.8,30.087,20.581,24.965,52.445
1505.7,35.087,21.581,24.965,52.445
1515.6,38.087,23.581,22.965,51.445
1525.5,42.087,23.581,22.965,51.445
1535.3,44.087,22.581,23.965,53.445
1545.2,46.087,23.581,20.965,52.445
1555.1,51.087,22.581,25.965,53.445
1565.0,51.087,22.581,29.965,51.445
1574.9,55.087,24.581,34.965,54.445
1584.8,59.087,24.581,40.965,55.445
1594.7,61.087,25.581,45.965,57.445
1604.5,66.087,25.581,52.965,58.445
1614.4,70.087,27.581,57.965,60.445
1624.3,76.087,30.581,61.965,60.445
1634.2,79.087,30.581,66.965,63.445
1644.1,80.087,30.581,68.965,64.445
1654.0,84.087,32.581,69.965,65.445
1663.8,87.087,30.581,73.965,63.445
1673.7,90.087,30.581,75.965,65.445
1683.6,91.087,31.581,75.965,66.445
1693.5,91.087,29.581,74.965,67.445
1703.4,92.087,30.581,77.965,67.445
1713.3,92.087,31.581,77.965,66.445
1723.2,94.087,31.581,79.965,66.445
1733.1,96.087,32.581,79.965,68.445
1742.9,97.087,32.581,78.965,67.445
1752.8,97.087,31.581,77.965,68.445
1762.7,96.087,31.581,77.965,68.445
1772.6,97.087,30.581,76.965,67.445
1782.5,97.087,31.581,76.965,67.445
1792.4,98.087,31.581,78.965,67.445
1802.2,97.087,31.581,78.965,66.445
1812.1,98.087,31.581,73.965,65.445
1822.0,98.087,31.581,73.965,65.445
1831.9,96.087,30.581,75.965,66.445
1841.8,95.087,30.581,76.965,67.445
1851.7,95.087,29.581,76.965,66.445
1861.6,95.087,29.581,76.965,68.445
1871.5,92.087,29.581,76.965,67.445
1881.3,92.087,29.581,76.965,68.445
1891.2,88.087,27.581,76.965,67.445
1901.1,88.087,27.581,77.965,68.445
1911.0,85.087,25.581,75.965,67.445
1920.9,85.087,25.581,74.965,67.445
1930.8,81.087,24.581,73.965,66.445
1940.6,81.087,24.581,72.965,66.445
1950.5,76.087,21.581,72.965,66.445
1960.4,76.087,21.581,70.965,67.445
1970.3,71.087,20.581,69.965,67.445
1980.2,71.087,20.581,69.965,65.445
1990.1,66.087,19.581,67.965,65.445
2000.0,66.087,19.581,68.965,67.445
2009.8,61.087,17.581,67.965,66.445
2019.7,61.087,17.581,65.965,65.445
2029.6,57.087,15.581,66.965,65.445
2039.5,56.087,13.581,64.965,65.445
2049.4,52.087,14.581,62.965,65.445
2059.3,51.087,11.581,62.965,64.445
2069.2,47.087,10.581,59.965,65.445
2079.0,45.087,9.5815,60.965,66.445
2088.9,41.087,9.5815,59.965,65.445
2098.8,38.087,7.5815,59.965,65.445
2108.7,34.087,6.5815,58.965,65.445
2118.6,30.087,4.5815,58.965,66.445
2128.5,27.087,3.5815,59.965,66.445
2138.4,25.087,1.5815,59.965,65.445
2148.2,21.087,1.5815,56.965,66.445
2158.1,17.087,-0.41853,55.965,64.445
2168.0,15.087,-1.4185,56.965,65.445
2177.9,12.087,-2.4185,54.965,65.445
2187.8,8.0871,-3.4185,52.965,64.445
2197.7,5.0871,-5.4185,52.965,64.445
2207.6,1.0871,-7.4185,51.965,64.445
2217.4,-3.9129,-8.4185,50.965,64.445
2227.3,-6.9129,-8.4185,51.965,65.445
2237.2,-7.9129,-10.419,49.965,65.445
2247.1,-11.913,-11.419,49.965,65.445
2257.0,-15.913,-13.419,48.965,64.445
2266.9,-18.913,-14.419,48.965,64.445
2276.8,-24.913,-15.419,47.965,65.445
2286.6,-26.913,-18.419,47.965,65.445
2296.5,-29.913,-17.419,46.965,65.445
2306.4,-32.913,-19.419,46.965,65.445
2316.3,-36.913,-21.419,45.965,63.445
2326.2,-41.913,-22.419,45.965,63.445
2336.1,-45.913,-24.419,43.965,63.445
2346.0,-46.913,-23.419,43.965,63.445
2355.8,-41.913,-20.419,41.965,64.445
2365.7,-36.913,-17.419,41.965,64.445
2375.6,-29.913,-14.419,40.965,64.445
2385.5,-24.913,-13.419,40.965,64.445
2395.4,-21.913,-13.419,39.965,65.445
2405.3,-18.913,-11.419,39.965,65.445
2415.2,-15.913,-12.419,45.965,67.445
2425.0,-16.913,-13.419,45.965,67.445
2434.9,-10.913,-12.419,57.965,68.445
2444.8,-6.9129,-12.419,57.965,68.445
2454.7,-3.9129,-10.419,65.965,72.445
2464.6,-1.9129,-9.4185,73.965,74.445
2474.5,3.0871,-7.4185,81.965,76.445
2484.4,9.0871,-5.4185,86.965,77.445
2494.2,10.087,-4.4185,90.965,80.445
2504.1,12.087,-4.4185,96.965,81.445
2514.0,13.087,-4.4185,100.97,82.445
2523.9,17.087,-3.4185,99.965,82.445
2533.8,20.087,-3.4185,100.97,82.445
2543.7,21.087,-2.4185,99.965,80.445
2553.6,19.087,-1.4185,97.965,80.445
2563.4,22.087,-3.4185,97.965,79.445
2573.3,23.087,-2.4185,99.965,80.445
2583.2,26.087,-0.41853,97.965,79.445
2593.1,27.087,0.58147,97.965,78.445
2603.0,28.087,0.58147,95.965,78.445
2612.9,30.087,1.5815,95.965,78.445
2622.8,29.087,1.5815,91.965,76.445
2632.6,31.087,0.58147,91.965,76.445
2642.5,30.087,0.58147,86.965,74.445
2652.4,31.087,1.5815,87.965,74.445
2662.3,29.087,-0.41853,84.965,74.445
2672.2,29.087,0.58147,83.965,74.445
2682.1,31.087,-0.41853,82.965,72.445
2692.0,30.087,-0.41853,80.965,72.445
2701.8,28.087,-0.41853,80.965,71.445
2711.7,28.087,-0.41853,80.965,71.445
2721.6,27.087,0.58147,78.965,72.445
2731.5,27.087,0.58147,79.965,69.445
2741.4,25.087,-1.4185,74.965,71.445
2751.3,25.087,-1.4185,73.965,69.445
2761.2,23.087,-1.4185,73.965,69.445
2771.0,23.087,-1.4185,70.965,67.445
2780.9,22.087,-3.4185,67.965,67.445
2790.8,22.087,-3.4185,65.965,66.445
2800.7,19.087,-3.4185,63.965,66.445
2810.6,19.087,-3.4185,62.965,65.445
2820.5,15.087,-4.4185,61.965,65.445
2830.4,15.087,-4.4185,61.965,64.445
2840.2,13.087,-4.4185,56.965,64.445
2850.1,13.087,-4.4185,54.965,64.445
2860.0,9.0871,-6.4185,51.965,63.445
2869.9,9.0871,-6.4185,48.965,62.445
2879.8,5.0871,-6.4185,48.965,60.445
2889.7,4.0871,-7.4185,48.965,60.445
2899.6,0.087134,-7.4185,44.965,60.445
2909.4,-0.91287,-8.4185,40.965,60.445
2919.3,-3.9129,-9.4185,41.965,59.445
2929.2,-6.9129,-10.419,38.965,59.445
2939.1,-7.9129,-10.419,37.965,58.445
2949.0,-9.9129,-11.419,35.965,59.445
2958.9,-15.913,-12.419,34.965,57.445
2968.8,-16.913,-12.419,35.965,57.445
2978.6,-17.913,-14.419,31.965,56.445
2988.5,-19.913,-13.419,30.965,57.445
2998.4,-22.913,-16.419,30.965,57.445
3008.3,-26.913,-17.419,27.965,55.445
3018.2,-29.913,-16.419,28.965,55.445
3028.1,-33.913,-19.419,25.965,55.445
3038.0,-34.913,-19.419,26.965,55.445
3047.8,-37.913,-20.419,25.965,55.445
3057.7,-39.913,-20.419,22.965,53.445
3067.6,-43.913,-22.419,23.965,54.445
3077.5,-46.913,-24.419,21.965,55.445
3087.4,-49.913,-24.419,19.965,53.445
3097.3,-53.913,-25.419,18.965,52.445
3107.2,-55.913,-25.419,16.965,51.445
3117.0,-59.913,-28.419,17.965,51.445
3126.9,-62.913,-29.419,15.965,52.445
3136.8,-67.913,-32.419,11.965,52.445
3146.7,-68.913,-30.419,10.965,51.445
3156.6,-72.913,-32.419,11.965,52.445
3166.5,-76.913,-34.419,9.9653,50.445
3176.4,-76.913,-34.419,6.9653,51.445
3186.2,-71.913,-28.419,8.9653,51.445
3196.1,-65.913,-25.419,7.9653,50.445
3206.0,-57.913,-21.419,6.9653,50.445
3215.9,-52.913,-18.419,4.9653,50.445
3225.8,-47.913,-17.419,1.9653,51.445
3235.7,-45.913,-17.419,4.9653,50.445
3245.6,-43.913,-18.419,7.9653,51.445
3255.4,-39.913,-17.419,12.965,52.445
3265.3,-36.913,-17.419,20.965,54.445
3275.2,-36.913,-18.419,28.965,56.445
3285.1,-33.913,-18.419,34.965,57.445
3295.0,-29.913,-15.419,40.965,59.445
3304.9,-23.913,-14.419,45.965,61.445
3314.8,-18.913,-10.419,50.965,62.445
3324.6,-12.913,-8.4185,52.965,6