t,carotid_880nm,carotid_660nm,brachial_880nm,brachial_660nm
3.2,-148.23,-68.209,64.077,50.753
13.1,-150.23,-68.209,61.077,50.753
22.9,-153.23,-69.209,61.077,49.753
32.8,-153.23,-69.209,59.077,49.753
42.7,-156.23,-69.209,56.077,47.753
52.6,-157.23,-69.209,56.077,47.753
62.5,-157.23,-69.209,52.077,46.753
72.4,-159.23,-69.209,51.077,45.753
82.3,-159.23,-68.209,50.077,46.753
92.1,-156.23,-66.209,48.077,45.753
102.0,-153.23,-65.209,48.077,46.753
111.9,-147.23,-64.209,52.077,48.753
121.8,-141.23,-62.209,56.077,49.753
131.7,-137.23,-60.209,58.077,50.753
141.6,-132.23,-59.209,63.077,51.753
151.4,-126.23,-59.209,67.077,53.753
161.3,-124.23,-58.209,71.077,54.753
171.2,-120.23,-58.209,75.077,55.753
181.1,-118.23,-58.209,78.077,55.753
191.0,-116.23,-59.209,80.077,56.753
200.9,-117.23,-60.209,82.077,57.753
210.8,-117.23,-60.209,83.077,55.753
220.7,-121.23,-61.209,83.077,57.753
230.5,-121.23,-61.209,84.077,55.753
240.4,-127.23,-62.209,85.077,56.753
250.3,-127.23,-62.209,81.077,54.753
260.2,-129.23,-64.209,80.077,55.753
270.1,-129.23,-64.209,79.077,53.753
280.0,-135.23,-65.209,77.077,52.753
289.8,-135.23,-65.209,74.077,53.753
299.7,-138.23,-64.209,73.077,53.753
309.6,-138.23,-64.209,72.077,52.753
319.5,-137.23,-63.209,69.077,52.753
329.4,-137.23,-63.209,69.077,52.753
339.3,-136.23,-62.209,66.077,51.753
349.2,-136.23,-62.209,64.077,51.753
359.1,-133.23,-62.209,63.077,50.753
368.9,-133.23,-62.209,61.077,52.753
378.8,-130.23,-61.209,61.077,52.753
388.7,-129.23,-60.209,62.077,50.753
398.6,-128.23,-61.209,62.077,50.753
408.5,-128.23,-60.209,64.077,50.753
418.4,-126.23,-62.209,64.077,50.753
428.2,-128.23,-61.209,63.077,52.753
438.1,-129.23,-61.209,63.077,52.753
448.0,-130.23,-62.209,66.077,53.753
457.9,-132.23,-61.209,66.077,53.753
467.8,-133.23,-63.209,65.077,51.753
477.7,-135.23,-62.209,65.077,51.753
487.6,-138.23,-64.209,66.077,53.753
497.4,-139.23,-63.209,66.077,53.753
507.3,-140.23,-64.209,62.077,51.753
517.2,-142.23,-63.209,62.077,51.753
527.1,-142.23,-64.209,58.077,49.753
537.0,-142.23,-64.209,58.077,49.753
546.9,-144.23,-64.209,57.077,48.753
556.8,-145.23,-64.209,57.077,48.753
566.6,-147.23,-64.209,54.077,48.753
576.5,-148.23,-64.209,54.077,48.753
586.4,-149.23,-65.209,52.077,48.753
596.3,-151.23,-64.209,50.077,48.753
606.2,-152.23,-65.209,49.077,46.753
616.1,-155.23,-66.209,48.077,46.753
626.0,-155.23,-66.209,47.077,45.753
635.8,-156.23,-66.209,45.077,45.753
645.7,-156.23,-66.209,45.077,44.753
655.6,-156.23,-65.209,43.077,44.753
665.5,-158.23,-65.209,40.077,45.753
675.4,-157.23,-64.209,38.077,43.753
685.3,-155.23,-64.209,35.077,43.753
695.2,-153.23,-62.209,33.077,41.753
705.0,-148.23,-59.209,33.077,40.753
714.9,-141.23,-57.209,34.077,43.753
724.8,-134.23,-54.209,35.077,44.753
734.7,-127.23,-52.209,40.077,44.753
744.6,-119.23,-50.209,45.077,46.753
754.5,-112.23,-49.209,50.077,48.753
764.4,-107.23,-48.209,52.077,50.753
774.2,-102.23,-48.209,58.077,50.753
784.1,-98.229,-48.209,61.077,51.753
794.0,-96.229,-48.209,66.077,51.753
803.9,-96.229,-48.209,68.077,52.753
813.8,-95.229,-47.209,71.077,53.753
823.7,-94.229,-47.209,73.077,52.753
833.6,-96.229,-48.209,73.077,53.753
843.4,-96.229,-49.209,72.077,51.753
853.3,-98.229,-49.209,72.077,52.753
863.2,-99.229,-49.209,71.077,51.753
873.1,-102.23,-49.209,69.077,51.753
883.0,-104.23,-50.209,68.077,50.753
892.9,-106.23,-49.209,67.077,49.753
902.8,-106.23,-49.209,63.077,49.753
912.6,-103.23,-48.209,62.077,49.753
922.5,-104.23,-47.209,60.077,48.753
932.4,-102.23,-46.209,58.077,49.753
942.3,-100.23,-47.209,57.077,49.753
952.2,-96.229,-45.209,56.077,48.753
962.1,-96.229,-45.209,55.077,49.753
972.0,-93.229,-45.209,53.077,47.753
981.8,-92.229,-44.209,54.077,48.753
991.7,-90.229,-44.209,54.077,49.753
1001.6,-90.229,-43.209,56.077,49.753
1011.5,-89.229,-43.209,56.077,48.753
1021.4,-89.229,-44.209,56.077,48.753
1031.3,-90.229,-44.209,55.077,49.753
1041.2,-90.229,-44.209,57.077,48.753
1051.0,-93.229,-45.209,57.077,49.753
1060.9,-93.229,-45.209,58.077,49.753
1070.8,-95.229,-45.209,57.077,49.753
1080.7,-95.229,-45.209,57.077,48.753
1090.6,-95.229,-44.209,58.077,47.753
1100.5,-95.229,-44.209,56.077,48.753
1110.4,-97.229,-45.209,54.077,47.753
1120.2,-97.229,-45.209,54.077,47.753
1130.1,-96.229,-44.209,50.077,45.753
1140.0,-96.229,-44.209,50.077,45.753
1149.9,-101.23,-45.209,51.077,45.753
1159.8,-101.23,-45.209,47.077,44.753
1169.7,-102.23,-45.209,46.077,45.753
1179.6,-102.23,-45.209,45.077,44.753
1189.4,-103.23,-45.209,45.077,44.753
1199.3,-103.23,-45.209,43.077,44.753
1209.2,-106.23,-46.209,41.077,42.753
1219.1,-108.23,-46.209,40.077,42.753
1229.0,-107.23,-46.209,37.077,41.753
1238.9,-108.23,-47.209,37.077,41.753
1248.8,-110.23,-46.209,36.077,40.753
1258.6,-110.23,-45.209,32.077,39.753
1268.5,-107.23,-44.209,34.077,39.753
1278.4,-107.23,-43.209,31.077,39.753
1288.3,-102.23,-42.209,30.077,40.753
1298.2,-99.229,-39.209,33.077,40.753
1308.1,-91.229,-37.209,34.077,40.753
1318.0,-84.229,-33.209,38.077,43.753
1327.8,-77.229,-32.209,41.077,44.753
1337.7,-68.229,-30.209,47.077,46.753
1347.6,-61.229,-29.209,50.077,46.753
1357.5,-54.229,-27.209,57.077,48.753
1367.4,-48.229,-26.209,61.077,49.753
1377.3,-44.229,-25.209,65.077,49.753
1387.2,-41.229,-26.209,67.077,51.753
1397.0,-39.229,-25.209,68.077,50.753
1406.9,-40.229,-26.209,70.077,51.753
1416.8,-41.229,-26.209,73.077,52.753
1426.7,-42.229,-26.209,72.077,51.753
1436.6,-42.229,-27.209,71.077,50.753
1446.5,-44.229,-27.209,71.077,50.753
1456.4,-44.229,-27.209,68.077,50.753
1466.2,-45.229,-27.209,68.077,48.753
1476.1,-45.229,-28.209,66.077,49.753
1486.0,-47.229,-27.209,66.077,49.753
1495.9,-46.229,-26.209,64.077,47.753
1505.8,-45.229,-26.209,64.077,47.753
1515.7,-44.229,-24.209,59.077,47.753
1525.6,-41.229,-23.209,59.077,47.753
1535.4,-38.229,-23.209,57.077,47.753
1545.3,-37.229,-21.209,57.077,47.753
1555.2,-35.229,-21.209,54.077,46.753
1565.1,-32.229,-21.209,54.077,46.753
1575.0,-31.229,-20.209,55.077,46.753
1584.9,-29.229,-20.209,55.077,46.753
1594.8,-30.229,-20.209,59.077,47.753
1604.6,-28.229,-19.209,59.077,47.753
1614.5,-26.229,-19.209,58.077,46.753
1624.4,-26.229,-19.209,58.077,46.753
1634.3,-26.229,-20.209,60.077,46.753
1644.2,-28.229,-20.209,60.077,46.753
1654.1,-29.229,-20.209,61.077,48.753
1664.0,-29.229,-19.209,61.077,48.753
1673.8,-31.229,-20.209,60.077,48.753
1683.7,-33.229,-20.209,60.077,48.753
1693.6,-34.229,-20.209,59.077,47.753
1703.5,-34.229,-21.209,59.077,47.753
1713.4,-36.229,-21.209,57.077,46.753
1723.3,-37.229,-21.209,55.077,47.753
1733.2,-38.229,-22.209,55.077,45.753
1743.0,-39.229,-22.209,53.077,44.753
1752.9,-40.229,-22.209,52.077,45.753
1762.8,-42.229,-21.209,51.077,43.753
1772.7,-43.229,-22.209,48.077,43.753
1782.6,-45.229,-24.209,48.077,44.753
1792.5,-47.229,-24.209,45.077,42.753
1802.4,-49.229,-25.209,43.077,41.753
1812.2,-51.229,-24.209,44.077,41.753
1822.1,-53.229,-25.209,42.077,40.753
1832.0,-53.229,-25.209,41.077,41.753
1841.9,-52.229,-24.209,41.077,40.753
1851.8,-52.229,-23.209,40.077,41.753
1861.7,-50.229,-22.209,38.077,39.753
1871.6,-47.229,-20.209,36.077,40.753
1881.4,-43.229,-17.209,35.077,40.753
1891.3,-35.229,-16.209,38.077,42.753
1901.2,-27.229,-14.209,41.077,42.753
1911.1,-27.229,-14.209,44.077,44.753
1921.0,-16.229,-11.209,48.077,45.753
1930.9,-16.229,-11.209,54.077,47.753
1940.8,-2.2289,-8.2087,59.077,48.753
1950.6,-2.2289,-8.2087,61.077,48.753
1960.5,4.7711,-8.2087,68.077,49.753
1970.4,4.7711,-8.2087,70.077,50.753
1980.3,8.7711,-7.2087,73.077,51.753
1990.2,8.7711,-7.2087,77.077,51.753
2000.1,8.7711,-7.2087,78.077,52.753
2010.0,8.7711,-7.2087,80.077,52.753
2019.8,7.7711,-9.2087,82.077,53.753
2029.7,7.7711,-9.2087,80.077,52.753
2039.6,4.7711,-10.209,80.077,50.753
2049.5,4.7711,-10.209,77.077,52.753
2059.4,3.7711,-10.209,75.077,51.753
2069.3,3.7711,-10.209,72.077,49.753
2079.2,0.77109,-9.2087,71.077,49.753
2089.0,2.7711,-10.209,71.077,48.753
2098.9,1.7711,-9.2087,69.077,48.753
2108.8,2.7711,-8.2087,68.077,48.753
2118.7,4.7711,-8.2087,68.077,49.753
2128.6,6.7711,-6.2087,67.077,49.753
2138.5,7.7711,-7.2087,66.077,49.753
2148.4,10.771,-6.2087,66.077,49.753
2158.2,13.771,-6.2087,64.077,50.753
2168.1,12.771,-6.2087,66.077,49.753
2178.0,12.771,-6.2087,68.077,49.753
2187.9,12.771,-6.2087,67.077,49.753
2197.8,12.771,-6.2087,68.077,49.753
2207.7,12.771,-7.2087,69.077,50.753
2217.6,10.771,-6.2087,68.077,49.753
2227.4,10.771,-7.2087,71.077,50.753
2237.3,8.7711,-8.2087,70.077,49.753
2247.2,9.7711,-8.2087,70.077,50.753
2257.1,6.7711,-8.2087,69.077,50.753
2267.0,4.7711,-9.2087,70.077,50.753
2276.9,3.7711,-9.2087,68.077,50.753
2286.8,2.7711,-9.2087,68.077,50.753
2296.6,0.77109,-9.2087,66.077,49.753
2306.5,0.77109,-9.2087,65.077,48.753
2316.4,-2.2289,-9.2087,64.077,49.753
2326.3,-3.2289,-10.209,63.077,49.753
2336.2,-4.2289,-11.209,62.077,48.753
2346.1,-6.2289,-11.209,60.077,47.753
2356.0,-7.2289,-11.209,61.077,47.753
2365.8,-10.229,-12.209,57.077,45.753
2375.7,-11.229,-12.209,56.077,46.753
2385.6,-14.229,-12.209,54.077,45.753
2395.5,-18.229,-14.209,54.077,45.753
2405.4,-20.229,-14.209,52.077,44.753
2415.3,-21.229,-14.209,53.077,45.753
2425.2,-22.229,-14.209,49.077,44.753
2435.0,-22.229,-14.209,50.077,44.753
2444.9,-21.229,-13.209,49.077,43.753
2454.8,-21.229,-13.209,48.077,44.753
2464.7,-17.229,-10.209,46.077,44.753
2474.6,-13.229,-9.2087,48.077,44.753
2484.5,-8.2289,-7.2087,51.077,45.753
2494.4,-1.2289,-5.2087,51.077,45.753
2504.2,3.7711,-3.2087,59.077,49.753
2514.1,10.771,-2.2087,59.077,49.753
2524.0,15.771,-1.2087,66.077,50.753
2533.9,22.771,0.79126,66.077,50.753
2543.8,26.771,0.79126,76.077,52.753
2553.7,28.771,-0.20874,76.077,52.753
2563.6,31.771,-0.20874,84.077,54.753
2573.4,29.771,-1.2087,84.077,54.753
2583.3,29.771,-1.2087,89.077,56.753
2593.2,27.771,-2.2087,89.077,56.753
2603.1,26.771,-2.2087,90.077,55.753
2613.0,25.771,-3.2087,90.077,55.753
2622.9,22.771,-4.2087,89.077,55.753
2632.8,23.771,-3.2087,89.077,55.753
2642.6,20.771,-4.2087,84.077,53.753
2652.5,17.771,-4.2087,84.077,53.753
2662.4,15.771,-5.2087,82.077,52.753
2672.3,15.771,-5.2087,82.077,52.753
2682.2,16.771,-5.2087,79.077,52.753
2692.1,16.771,-4.2087,79.077,52.753
2702.0,15.771,-5.2087,78.077,52.753
2711.8,15.771,-4.2087,77.077,53.753
2721.7,15.771,-4.2087,76.077,52.753
2731.6,17.771,-4.2087,77.077,53.753
2741.5,17.771,-4.2087,77.077,53.753
2751.4,18.771,-4.2087,76.077,52.753
2761.3,18.771,-4.2087,78.077,52.753
2771.2,19.771,-5.2087,78.077,53.753
2781.0,19.771,-5.2087,79.077,53.753
2790.9,18.771,-5.2087,79.077,52.753
2800.8,18.771,-5.2087,82.077,55.753
2810.7,14.771,-6.2087,81.077,54.753
2820.6,14.771,-6.2087,82.077,54.753
2830.5,10.771,-8.2087,81.077,53.753
2840.3,10.771,-8.2087,82.077,53.753
2850.2,7.7711,-8.2087,82.077,55.753
2860.1,7.7711,-8.2087,80.077,54.753
2870.0,2.7711,-9.2087,78.077,54.753
2879.9,2.7711,-9.2087,78.077,53.753
2889.8,-1.2289,-11.209,76.077,52.753
2899.7,-1.2289,-11.209,76.077,52.753
2909.6,-1.2289,-12.209,75.077,51.753
2919.4,-5.2289,-12.209,74.077,53.753
2929.3,-7.2289,-13.209,73.077,52.753
2939.2,-8.2289,-13.209,73.077,51.753
2949.1,-10.229,-14.209,71.077,49.753
2959.0,-13.229,-15.209,70.077,50.753
2968.9,-16.229,-15.209,67.077,49.753
2978.7,-19.229,-16.209,67.077,50.753
2988.6,-21.229,-17.209,65.077,49.753
2998.5,-23.229,-18.209,64.077,48.753
3008.4,-26.229,-18.209,62.077,47.753
3018.3,-27.229,-19.209,61.077,48.753
3028.2,-29.229,-19.209,58.077,47.753
3038.1,-29.229,-19.209,60.077,47.753
3047.9,-29.229,-17.209,56.077,47.753
3057.8,-29.229,-17.209,55.077,46.753
3067.7,-26.229,-16.209,55.077,47.753
3077.6,-21.229,-14.209,57.077,47.753
3087.5,-17.229,-13.209,61.077,49.753
3097.4,-9.2289,-10.209,62.077,50.753
3107.3,-4.2289,-9.2087,67.077,53.753
3117.1,-1.2289,-9.2087,71.077,54.753
3127.0,5.7711,-7.2087,77.077,55.753
3136.9,9.7711,-6.2087,81.077,56.753
3146.8,11.771,-6.2087,85.077,55.753
3156.7,14.771,-6.2087,90.077,58.753
3166.6,14.771,-6.2087,93.077,58.753
3176.5,16.771,-6.2087,94.077,58.753
3186.3,15.771,-7.2087,97.077,59.753
3196.2,14.771,-7.2087,96.077,59.753
3206.1,12.771,-9.2087,98.077,58.753
3216.0,11.771,-9.2087,97.077,59.753
3225.9,9.7711,-9.2087,96.077,58.753
3235.8,7.7711,-10.209,96.077,58.753
3245.7,7.7711,-10.209,91.077,56.753
3255.5,5.7711,-10.209,88.077,56.753
3265.4,3.7711,-11.209,88.077,55.753
3275.3,3.7711,-10.209,87.077,56.753
3285.2,3.7711,-10.209,87.077,55.753
3295.1,3.7711,-10.209,85.077,54.753
3305.0,3.7711,-9.2087,81.077,56.753
3314.9,4.7711,-8.2087,82.077,55.753
3324.7,7.7711,-9.2087,81.077,55.753
3334.6,7.7711,-8.2087,82.077,54.753
3344.5,8.7711,-7.2087,81.077,56.753
3354.4,9.7711,-7.2087,81.077,54.753
3364.3,10.771,-7.2087,83.077,55.753
3374.2,10.771,-7.2087,83.077,55.753
3384.1,8.7711,-8.2087,84.077,56.753
3393.9,8.7711,-8.2087,85.077,55.753
3403.8,7.7711,-8.2087,85.077,55.753
3413.7,6.7711,-8.2087,86.077,56.753
3423.6,6.7711,-9.2087,85.077,56.753
3433.5,4.7711,-9.2087,86.077,55.753
3443.4,2.7711,-9.2087,85.077,55.753
3453.3,0.77109,-10.209,85.077,54.753
3463.1,0.77109,-9.2087,83.077,55.753
3473.0,-2.2289,-10.209,82.077,55.753
3482.9,-4.2289,-11.209,81.077,53.753
3492.8,-6.2289,-10.209,78.077,54.753
3502.7,-8.2289,-10.209,76.077,53.753
3512.6,-9.2289,-11.209,74.077,53.753
3522.5,-11.229,-12.209,74.077,53.753
3532.3,-14.229,-12.209,74.077,53.753
3542.2,-16.229,-14.209,74.077,53.753
3552.1,-19.229,-14.209,70.077,52.753
3562.0,-22.229,-16.209,70.077,52.753
3571.9,-26.229,-17.209,67.077,51.753
3581.8,-28.229,-18.209,67.077,51.753
3591.7,-28.229,-18.209,63.077,49.753
3601.5,-34.229,-19.209,63.077,49.753
3611.4,-34.229,-19.209,61.077,49.753
3621.3,-38.229,-20.209,61.077,49.753
3631.2,-38.229,-20.209,58.077,48.753
3641.1,-38.229,-19.209,58.077,48.753
3651.0,-38.229,-19.209,57.077,47.753
3660.9,-39.229,-17.209,57.077,47.753
3670.7,-39.229,-17.209,56.077,49.753
3680.6,-33.229,-15.209,56.077,49.753
3690.5,-33.229,-15.209,61.077,51.753
3700.4,-25.229,-12.209,61.077,51.753
3710.3,-25.229,-12.209,70.077,54.753
3720.2,-15.229,-11.209,70.077,54.753
3730.1,-15.229,-11.209,75.077,56.753
3739.9,-10.229,-10.209,81.077,57.753
3749.8,-10.229,-10.209,83.077,58.753
3759.7,-8.2289,-10.209,87.077,59.753
3769.6,-8.2289,-11.209,89.077,58.753
3779.5,-9.2289,-13.209,93.077,58.753
3789.4,-10.229,-13.209,95.077,60.753
3799.3,-13.229,-14.209,97.077,59.753
3809.1,-16.229,-16.209,97.077,59.753
3819.0,-19.229,-16.209,97.077,60.753
3828.9,-19.229,-17.209,96.077,58.753
3838.8,-21.229,-17.209,93.077,58.753
3848.7,-24.229,-18.209,91.077,56.753
3858.6,-28.229,-19.209,90.077,55.753
3868.5,-30.229,-20.209,88.077,56.753
3878.3,-34.229,-20.209,89.077,55.753
3888.2,-34.229,-21.209,85.077,55.753
3898.1,-36.229,-21.209,82.077,54.753
3908.0,-36.229,-20.209,82.077,56.753
3917.9,-37.229,-21.209,82.077,55.753
3927.8,-36.229,-21.209,80.077,54.753
3937.7,-35.229,-21.209,81.077,54.753
3947.5,-34.229,-21.209,82.077,55.753
3957.4,-35.229,-20.209,81.077,56.753
3967.3,-38.229,-21.209,83.077,56.753
3977.2,-37.229,-21.209,83.077,57.753
3987.1,-37.229,-22.209,85.077,56.753
3997.0,-40.229,-22.209,85.077,57.753
4006.9,-39.229,-23.209,85.077,57.753
4016.7,-42.229,-24.209,85.077,57.753
4026.6,-43.229,-23.209,88.077,57.753
4036.5,-44.229,-25.209,87.077,58.753
4046.4,-46.229,-24.209,86.077,57.753
4056.3,-48.229,-25.209,88.077,57.753
4066.2,-50.229,-25.209,86.077,57.753
4076.1,-51.229,-25.209,83.077,56.753
4085.9,-54.229,-26.209,83.077,55.753
4095.8,-55.229,-27.209,80.077,54.753
4105.7,-59.229,-27.209,80.077,55.753
4115.6,-61.229,-28.209,78.077,54.753
4125.5,-64.229,-29.209,75.077,54.753
4135.4,-68.229,-30.209,73.077,51.753
4145.3,-69.229,-31.209,75.077,54.753
4155.1,-71.229,-32.209,72.077,52.753
4165.0,-75.229,-33.209,70.077,52.753
4174.9,-77.229,-33.209,68.077,50.753
4184.8,-81.229,-34.209,68.077,50.753
4194.7,-83.229,-35.209,67.077,51.753
4204.6,-84.229,-36.209,64.077,49.753
4214.5,-86.229,-35.209,63.077,50.753
4224.3,-89.229,-37.209,62.077,49.753
4234.2,-92.229,-37.209,61.077,50.753
4244.1,-93.229,-36.209,58.077,48.753
4254.0,-95.229,-37.209,56.077,46.753
4263.9,-95.229,-37.209,54.077,46.753
4273.8,-95.229,-36.209,54.077,47.753
4283.7,-91.229,-35.209,55.077,48.753
4293.5,-88.229,-34.209,57.077,49.753
4303.4,-86.229,-32.209,61.077,51.753
4313.3,-81.229,-32.209,65.077,52.753
4323.2,-78.229,-31.209,70.077,54.753
4333.1,-72.229,-31.209,73.077,55.753
4343.0,-71.229,-31.209,79.077,56.753
4352.9,-69.229,-31.209,83.077,57.753
4362.7,-70.229,-32.209,86.077,58.753
4372.6,-70.229,-33.209,85.077,57.753
4382.5,-71.229,-33.209,90.077,57.753
4392.4,-73.229,-35.209,89.077,58.753
4402.3,-75.229,-36.209,93.077,57.753
4412.2,-77.229,-36.209,90.077,57.753
4422.1,-81.229,-37.209,90.077,57.753
4431.9,-82.229,-37.209,88.077,57.753
4441.8,-82.229,-37.209,87.077,56.753
4451.7,-88.229,-38.209,85.077,54.753
4461.6,-88.229,-38.209,85.077,54.753
4471.5,-91.229,-38.209,82.077,54.753
4481.4,-91.229,-38.209,80.077,54.753
4491.3,-91.229,-39.209,78.077,53.753
4501.1,-91.229,-39.209,75.077,52.753
4511.0,-91.229,-39.209,74.077,52.753
4520.9,-91.229,-39.209,74.077,52.753
4530.8,-90.229,-37.209,74.077,54.753
4540.7,-90.229,-37.209,76.077,53.753
4550.6,-88.229,-37.209,75.077,53.753
4560.5,-88.229,-37.209,76.077,54.753
4570.3,-89.229,-38.209,77.077,54.753
4580.2,-89.229,-38.209,76.077,53.753
4590.1,-91.229,-40.209,78.077,56.753
4600.0,-91.229,-40.209,77.077,53.753
4609.9,-92.229,-39.209,77.077,53.753
4619.8,-95.229,-40.209,78.077,54.753
4629.7,-95.229,-41.209,78.077,54.753
4639.5,-98.229,-40.209,77.077,54.753
4649.4,-101.23,-42.209,77.077,54.753
4659.3,-101.23,-43.209,75.077,53.753
4669.2,-105.23,-44.209,75.077,53.753
4679.1,-106.23,-44.209,75.077,52.753
4689.0,-109.23,-43.209,75.077,52.753
4698.9,-111.23,-45.209,72.077,52.753
4708.7,-112.23,-45.209,72.077,52.753
4718.6,-114.23,-46.209,70.077,52.753
4728.5,-116.23,-46.209,70.077,52.753
4738.4,-118.23,-48.209,65.077,49.753
4748.3,-122.23,-48.209,65.077,49.753
4758.2,-121.23,-50.209,61.077,48.753
4768.1,-124.23,-49.209,61.077,48.753
4777.9,-129.23,-50.209,58.077,47.753
4787.8,-130.23,-51.209,58.077,47.753
4797.7,-134.23,-52.209,57.077,48.753
4807.6,-136.23,-52.209,54.077,47.753
4817.5,-138.23,-53.209,53.077,47.753
4827.4,-139.23,-53.209,54.077,46.753
4837.3,-141.23,-53.209,53.077,45.753
4847.1,-138.23,-53.209,50.077,45.753
4857.0,-140.23,-51.209,47.077,44.753
4866.9,-138.23,-51.209,48.077,43.753
4876.8,-134.23,-48.209,45.077,44.753
4886.7,-129.23,-47.209,46.077,44.753
4896.6,-124.23,-44.209,51.077,47.753
4906.5,-117.23,-43.209,54.077,47.753
4916.3,-111.23,-40.209,57.077,50.753
4926.2,-107.23,-40.209,65.077,51.753
4936.1,-102.23,-39.209,68.077,52.753
4946.0,-98.229,-39.209,73.077,53.753
4955.9,-97.229,-40.209,77.077,55.753
4965.8,-95.229,-39.209,81.077,54.753
4975.7,-96.229,-39.209,84.077,55.753
4985.5,-97.229,-40.209,85.077,55.753
4995.4,-96.229,-40.209,84.077,53.753
5005.3,-98.229,-41.209,83.077,53.753
5015.2,-97.229,-40.209,84.077,54.753
5025.1,-100.23,-41.209,83.077,54.753
5035.0,-98.229,-40.209,83.077,53.753
5044.9,-100.23,-41.209,82.077,51.753
5054.7,-100.23,-40.209,80.077,52.753
5064.6,-101.23,-40.209,77.077,51.753
5074.5,-102.23,-40.209,76.077,50.753
5084.4,-100.23,-40.209,75.077,51.753
5094.3,-99.229,-38.209,72.077,50.753
5104.2,-95.229,-36.209,71.077,50.753
5114.1,-93.229,-35.209,70.077,49.753
5123.9,-91.229,-36.209,66.077,50.753
5133.8,-91.229,-34.209,66.077,50.753
5143.7,-87.229,-34.209,66.077,49.753
5153.6,-87.229,-34.209,67.077,49.753
5163.5,-84.229,-33.209,67.077,49.753
5173.4,-85.229,-32.209,68.077,48.753
5183.3,-84.229,-33.209,69.077,49.753
5193.1,-83.229,-33.209,70.077,49.753
5203.0,-86.229,-34.209,70.077,49.753
5212.9,-86.229,-33.209,71.077,49.753
5222.8,-88.229,-34.209,70.077,50.753
5232.7,-88.229,-34.209,71.077,49.753
5242.6,-91.229,-34.209,70.077,49.753
5252.5,-90.229,-34.209,71.077,49.753
5262.3,-90.229,-34.209,69.077,49.753
5272.2,-92.229,-34.209,68.077,48.753
5282.1,-91.229,-33.209,69.077,48.753
5292.0,-91.229,-33.209,65.077,47.753
5301.9,-93.229,-33.209,63.077,47.753
5311.8,-93.229,-33.209,63.077,49.753
5321.7,-92.229,-33.209,60.077,46.753
5331.5,-92.229,-33.209,61.077,46.753
5341.4,-96.229,-33.209,58.077,45.753
5351.3,-96.229,-33.209,58.077,44.753
5361.2,-97.229,-34.209,56.077,44.753
5371.1,-97.229,-34.209,54.077,43.753
5381.0,-101.23,-34.209,54.077,44.753
5390.8,-101.23,-34.209,53.077,43.753
5400.7,-102.23,-34.209,53.077,44.753
5410.6,-102.23,-34.209,50.077,42.753
5420.5,-101.23,-33.209,51.077,43.753
5430.4,-101.23,-33.209,48.077,41.753
5440.3,-99.229,-31.209,47.077,42.753
5450.2,-99.229,-31.209,45.077,41.753
5460.1,-91.229,-26.209,45.077,40.753
5469.9,-91.229,-26.209,46.077,41.753
5479.8,-84.229,-24.209,50.077,43.753
5489.7,-77.229,-20.209,53.077,45.753
5499.6,-70.229,-19.209,58.077,47.753
5509.5,-63.229,-18.209,63.077,48.753
5519.4,-55.229,-16.209,67.077,49.753
5529.2,-49.229,-14.209,71.077,50.753
5539.1,-43.229,-13.209,77.077,51.753
5549.0,-40.229,-12.209,81.077,52.753
5558.9,-37.229,-12.209,84.077,53.753
5568.8,-32.229,-11.209,87.077,53.753
5578.7,-29.229,-10.209,87.077,54.753
5588.6,-28.229,-9.2087,89.077,53.753
5598.5,-28.229,-8.2087,89.077,54.753
5608.3,-25.229,-7.2087,89.077,52.753
5618.2,-25.229,-6.2087,87.077,52.753
5628.1,-22.229,-5.2087,87.077,52.753
5638.0,-21.229,-4.2087,87.077,52.753
5647.9,-21.229,-4.2087,82.077,50.753
5657.8,-20.229,-2.2087,82.077,50.753
5667.6,-18.229,-2.2087,79.077,50.753
5677.5,-16.229,-1.2087,79.077,50.753
5687.4,-16.229,-0.20874,77.077,50.753
5697.3,-14.229,-0.20874,77.077,50.753
5707.2,-12.229,1.7913,75.077,49.753
5717.1,-12.229,0.79126,75.077,49.753
5727.0,-10.229,1.7913,75.077,50.753
5736.8,-8.2289,1.7913,75.077,50.753
5746.7,-8.2289,3.7913,76.077,50.753
5756.6,-7.2289,2.7913,76.077,50.753
5766.5,-5.2289,3.7913,80.077,51.753
5776.4,-4.2289,4.7913,80.077,51.753
5786.3,-4.2289,4.7913,81.077,50.753
5796.2,-4.2289,3.7913,81.077,50.753
5806.0,-4.2289,4.7913,81.077,50.753
5815.9,-4.2289,4.7913,81.077,50.753
5825.8,-6.2289,3.7913,82.077,50.753
5835.7,-7.2289,4.7913,82.077,50.753
5845.6,-8.2289,4.7913,82.077,50.753
5855.5,-8.2289,4.7913,82.077,50.753
5865.4,-9.2289,4.7913,82.077,50.753
5875.2,-11.229,4.7913,80.077,51.753
5885.1,-13.229,3.7913,81.077,50.753
5895.0,-14.229,3.7913,79.077,51.753
5904.9,-16.229,2.7913,78.077,49.753
5914.8,-17.229,3.7913,76.077,50.753
5924.7,-18.229,2.7913,75.077,50.753
5934.6,-19.229,1.7913,76.077,49.753
5944.4,-20.229,1.7913,74.077,49.753
5954.3,-22.229,1.7913,71.077,47.753
5964.2,-24.229,0.79126,71.077,46.753
5974.1,-26.229,-0.20874,67.077,45.753
5984.0,-26.229,-0.20874,66.077,47.753
5993.9,-29.229,-0.20874,66.077,45.753
6003.8,-30.229,-1.2087,65.077,45.753
6013.6,-30.229,-0.20874,65.077,43.753
6023.5,-28.229,0.79126,65.077,46.753
6033.4,-30.229,0.79126,62.077,45.753
6043.3,-27.229,0.79126,63.077,45.753
6053.2,-24.229,3.7913,63.077,46.753
6063.1,-20.229,4.7913,64.077,46.753
6073.0,-12.229,6.7913,66.077,47.753
6082.8,-8.2289,8.7913,70.077,49.753
6092.7,-1.2289,9.7913,74.077,50.753
6102.6,4.7711,10.791,77.077,51.753
6112.5,11.771,12.791,84.077,52.753
6122.4,14.771,13.791,87.077,53.753
6132.3,18.771,13.791,93.077,55.753
6142.2,21.771,14.791,96.077,55.753
6152.0,21.771,13.791,99.077,56.753
6161.9,21.771,13.791,103.08,56.753
6171.8,24.771,13.791,105.08,57.753
6181.7,24.771,13.791,107.08,55.753
6191.6,23.771,13.791,106.08,58.753
6201.5,23.771,13.791,105.08,56.753
6211.4,22.771,12.791,106.08,56.753
6221.2,22.771,12.791,104.08,56.753
6231.1,21.771,12.791,103.08,54.753
6241.0,21.771,12.791,101.08,53.753
6250.9,19.771,12.791,99.077,53.753
6260.8,19.771,12.791,96.077,52.753
6270.7,20.771,13.791,97.077,53.753
6280.6,20.771,13.791,95.077,52.753
6290.4,24.771,13.791,93.077,52.753
6300.3,24.771,13.791,93.077,52.753
6310.2,28.771,14.791,92.077,52.753
6320.1,28.771,14.791,94.077,52.753
6330.0,30.771,15.791,96.077,53.753
6339.9,30.771,16.791,97.077,54.753
6349.8,32.771,16.791,99.077,53.753
6359.6,34.771,16.791,98.077,54.753
6369.5,33.771,16.791,101.08,55.753
6379.4,33.771,16.791,101.08,53.753
6389.3,34.771,16.791,100.08,53.753
6399.2,32.771,15.791,100.08,53.753
6409.1,33.771,15.791,102.08,54.753
6419.0,31.771,14.791,98.077,54.753
6428.8,29.771,14.791,99.077,53.753
6438.7,30.771,14.791,98.077,53.753
6448.6,29.771,15.791,99.077,52.753
6458.5,27.771,15.791,98.077,53.753
6468.4,27.771,13.791,97.077,52.753
6478.3,27.771,14.791,96.077,52.753
6488.2,26.771,14.791,96.077,52.753
6498.0,26.771,14.791,94.077,52.753
6507.9,24.771,14.791,93.077,50.753
6517.8,22.771,13.791,90.077,51.753
6527.7,21.771,14.791,92.077,50.753
6537.6,19.771,13.791,89.077,50.753
6547.5,19.771,13.791,89.077,49.753
6557.4,17.771,12.791,87.077,48.753
6567.2,15.771,12.791,86.077,48.753
6577.1,13.771,12.791,85.077,48.753
6587.0,13.771,10.791,83.077,47.753
6596.9,10.771,11.791,83.077,46.753
6606.8,9.7711,10.791,80.077,47.753
6616.7,8.7711,10.791,80.077,48.753
6626.6,8.7711,10.791,80.077,46.753
6636.4,10.771,11.791,77.077,45.753
6646.3,11.771,12.791,77.077,45.753
6656.2,13.771,13.791,77.077,47.753
6666.1,16.771,15.791,80.077,48.753
6676.0,23.771,18.791,85.077,48.753
6685.9,29.771,18.791,88.077,51.753
6695.8,35.771,20.791,93.077,52.753
6705.6,40.771,20.791,99.077,53.753
6715.5,46.771,22.791,103.08,54.753
6725.4,50.771,23.791,107.08,56.753
6735.3,54.771,22.791,112.08,57.753
6745.2,57.771,23.791,115.08,58.753
6755.1,57.771,22.791,120.08,58.753
6765.0,59.771,23.791,122.08,58.753
6774.8,61.771,23.791,123.08,57.753
6784.7,61.771,23.791,123.08,57.753
6794.6,60.771,23.791,123.08,59.753
6804.5,59.771,22.791,123.08,59.753
6814.4,59.771,21.791,124.08,58.753
6824.3,57.771,22.791,124.08,58.753
6834.2,56.771,21.791,117.08,55.753
6844.0,56.771,22.791,117.08,55.753
6853.9,55.771,21.791,115.08,55.753
6863.8,56.771,22.791,115.08,55.753
6873.7,57.771,22.791,113.08,56.753
6883.6,56.771,21.791,113.08,56.753
6893.5,57.771,22.791,112.08,56.753
6903.4,58.771,22.791,112.08,56.753
6913.2,59.771,23.791,112.08,55.753
6923.1,62.771,22.791,112.08,55.753
6933.0,62.771,23.791,113.08,55.753
6942.9,63.771,22.791,113.08,55.753
6952.8,63.771,23.791,114.08,55.753
6962.7,64.771,23.791,114.08,55.753
6972.6,62.771,22.791,116.08,55.753
6982.4,62.771,22.791,115.08,56.753
6992.3,62.771,22.791,116.08,56.753
7002.2,60.771,22.791,116.08,55.753
7012.1,60.771,22.791,116.08,55.753
7022.0,58.771,21.791,116.08,54.753
7031.9,58.771,21.791,114.08,55.753
7041.8,55.771,20.791,116.08,55.753
7051.6,55.771,20.791,115.08,55.753
7061.5,51.771,19.791,114.08,54.753
7071.4,51.771,19.791,110.08,54.753
7081.3,49.771,17.791,111.08,52.753
7091.2,49.771,17.791,110.08,53.753
7101.1,45.771,17.791,109.08,51.753
7111.0,45.771,17.791,106.08,52.753
7120.8,44.771,17.791,105.08,52.753
7130.7,44.771,17.791,105.08,52.753
7140.6,41.771,16.791,102.08,50.753
7150.5,41.771,16.791,99.077,51.753
7160.4,37.771,15.791,101.08,50.753
7170.3,36.771,15.791,98.077,49.753
7180.2,34.771,13.791,97.077,48.753
7190.0,32.771,13.791,97.077,48.753
7199.9,28.771,12.791,95.077,48.753
7209.8,27.771,11.791,95.077,47.753
7219.7,26.771,11.791,94.077,46.753
7229.6,25.771,11.791,92.077,46.753
7239.5,23.771,11.791,91.077,47.753
7249.4,22.771,11.791,92.077,47.753
7259.2,23.771,12.791,90.077,45.753
7269.1,24.771,12.791,87.077,45.753
7279.0,26.771,13.791,87.077,46.753
7288.9,30.771,15.791,90.077,45.753
7298.8,35.771,16.791,90.077,48.753
7308.7,41.771,18.791,98.077,50.753
7318.6,47.771,20.791,103.08,53.753
7328.4,52.771,21.791,106.08,53.753
7338.3,59.771,23.791,109.08,53.753
7348.2,65.771,23.791,115.08,54.753
7358.1,69.771,23.791,121.08,55.753
7368.0,73.771,25.791,122.08,56.753
7377.9,78.771,25.791,126.08,58.753
7387.8,79.771,25.791,129.08,57.753
7397.6,81.771,25.791,130.08,57.753
7407.5,80.771,25.791,130.08,57.753
7417.4,81.771,26.791,132.08,57.753
7427.3,80.771,25.791,130.08,58.753
7437.2,79.771,24.791,130.08,55.753
7447.1,79.771,25.791,127.08,55.753
7457.0,78.771,24.791,124.08,55.753
7466.8,80.771,25.791,124.08,55.753
7476.7,78.771,25.791,122.08,53.753
7486.6,78.771,24.791,121.08,53.753
7496.5,79.771,24.791,120.08,53.753
7506.4,79.771,25.791,121.08,55.753
7516.3,83.771,26.791,120.08,55.753
7526.2,84.771,26.791,120.08,54.753
7536.0,85.771,27.791,118.08,55.753
7545.9,86.771,28.791,120.08,54.753
7555.8,89.771,29.791,120.08,54.753
7565.7,89.771,28.791,119.08,54.753
7575.6,90.771,29.791,121.08,56.753
7585.5,91.771,28.791,120.08,54.753
7595.4,91.771,28.791,119.08,54.753
7605.2,90.771,28.791,121.08,55.753
7615.1,90.771,27.791,120.08,55.753
7625.0,90.771,28.791,122.08,55.753
7634.9,87.771,28.791,121.08,54.753
7644.8,85.771,27.791,120.08,54.753
7654.7,84.771,26.791,120.08,54.753
7664.6,81.771,25.791,121.08,54.753
7674.4,79.771,24.791,118.08,54.753
7684.3,75.771,23.791,118.08,54.753
7694.2,72.771,23.791,115.08,53.753
7704.1,71.771,23.791,115.08,54.753
7714.0,69.771,21.791,112.08,52.753
7723.9,67.771,21.791,112.08,52.753
7733.8,64.771,20.791,109.08,51.753
7743.6,63.771,19.791,109.08,51.753
7753.5,61.771,18.791,106.08,50.753
7763.4,59.771,18.791,107.08,49.753
7773.3,55.771,17.791,104.08,51.753
7783.2,54.771,15.791,103.08,50.753
7793.1,50.771,15.791,103.08,50.753
7803.0,49.771,14.791,98.077,49.753
7812.8,45.771,13.791,98.077,49.753
7822.7,43.771,12.791,99.077,48.753
7832.6,40.771,11.791,99.077,48.753
7842.5,40.771,11.791,95.077,48.753
7852.4,34.771,9.7913,95.077,48.753
7862.3,34.771,9.7913,92.077,47.753
7872.2,29.771,8.7913,92.077,47.753
7882.0,29.771,8.7913,92.077,46.753
7891.9,29.771,9.7913,92.077,46.753
7901.8,29.771,9.7913,88.077,44.753
7911.7,28.771,9.7913,88.077,44.753
7921.6,28.771,9.7913,88.077,44.753
7931.5,34.771,11.791,88.077,44.753
7941.3,34.771,11.791,93.077,48.753
7951.2,43.771,13.791,93.077,48.753
7961.1,43.771,13.791,102.08,50.753
7971.0,54.771,16.791,102.08,50.753
7980.9,54.771,16.791,112.08,52.753
7990.8,65.771,17.791,112.08,52.753
8000.7,65.771,17.791,117.08,54.753
8010.6,70.771,18.791,120.08,55.753
8020.4,71.771,17.791,121.08,54.753
8030.3,74.771,18.791,125.08,54.753
8040.2,73.771,17.791,128.08,56.753
8050.1,73.771,18.791,129.08,55.753
8060.0,73.771,17.791,130.08,56.753
8069.9,71.771,16.791,130.08,55.753
8079.7,70.771,17.791,129.08,55.753
8089.6,69.771,15.791,127.08,53.753
8099.5,67.771,15.791,125.08,53.753
8109.4,65.771,15.791,123.08,52.753
8119.3,65.771,14.791,121.08,53.753
8129.2,64.771,14.791,120.08,52.753
8139.1,64.771,15.791,119.08,52.753
8149.0,63.771,14.791,117.08,53.753
8158.8,64.771,15.791,117.08,51.753
8168.7,66.771,14.791,115.08,52.753
8178.6,66.771,15.791,115.08,51.753
8188.5,67.771,15.791,115.08,52.753
8198.4,67.771,16.791,117.08,53.753
8208.3,69.771,15.791,115.08,52.753
8218.1,69.771,15.791,117.08,53.753
8228.0,69.771,14.791,119.08,52.753
8237.9,70.771,15.791,116.08,51.753
8247.8,68.771,14.791,119.08,51.753
8257.7,66.771,14.791,119.08,52.753
8267.6,66.771,13.791,120.08,52.753
8277.5,64.771,12.791,118.08,52.753
8287.3,61.771,12.791,121.08,51.753
8297.2,61.771,12.791,120.08,50.753
8307.1,59.771,12.791,119.08,51.753
8317.0,57.771,11.791,119.08,51.753
8326.9,56.771,11.791,118.08,52.753
8336.8,55.771,10.791,116.08,51.753
8346.7,51.771,10.791,114.08,50.753
8356.5,49.771,9.7913,113.08,50.753
8366.4,49.771,9.7913,113.08,50.753
8376.3,46.771,8.7913,112.08,48.753
8386.2,45.771,7.7913,110.08,48.753
8396.1,44.771,6.7913,109.08,49.753
8406.0,42.771,6.7913,107.08,48.753
8415.9,40.771,6.7913,104.08,47.753
8425.7,38.771,5.7913,101.08,46.753
8435.6,34.771,4.7913,102.08,44.753
8445.5,33.771,4.7913,101.08,45.753
8455.4,30.771,2.7913,99.077,44.753
8465.3,29.771,2.7913,98.077,45.753
8475.2,26.771,0.79126,97.077,45.753
8485.1,22.771,-0.20874,98.077,45.753
8494.9,20.771,-0.20874,98.077,45.753
8504.8,19.771,-0.20874,98.077,45.753
8514.7,17.771,-1.2087,94.077,42.753
8524.6,14.771,-1.2087,94.077,43.753
8534.5,13.771,-2.2087,92.077,42.753
8544.4,13.771,-1.2087,91.077,41.753
8554.3,12.771,-0.20874,88.077,40.753
8564.1,13.771,-1.2087,85.077,39.753
8574.0,16.771,0.79126,83.077,38.753
8583.9,23.771,2.7913,82.077,38.753
8593.8,26.771,3.7913,86.077,40.753
8603.7,30.771,5.7913,90.077,42.753
8613.6,37.771,6.7913,96.077,44.753
8623.5,43.771,7.7913,100.08,45.753
8633.3,49.771,8.7913,104.08,46.753
8643.2,53.771,8.7913,109.08,47.753
8653.1,55.771,8.7913,112.08,49.753
8663.0,61.771,9.7913,119.08,48.753
8672.9,59.771,9.7913,119.08,48.753
8682.8,61.771,9.7913,122.08,49.753
8692.7,61.771,9.7913,122.08,49.753
8702.5,59.771,8.7913,121.08,48.753
8712.4,59.771,8.7913,121.08,48.753
8722.3,59.771,8.7913,118.08,46.753
8732.2,59.771,8.7913,117.08,46.753
8742.1,55.771,6.7913,116.08,46.753
8752.0,55.771,6.7913,114.08,44.753
8761.9,52.771,6.7913,113.08,43.753
8771.7,52.771,6.7913,109.08,44.753
8781.6,52.771,7.7913,108.08,45.753
8791.5,52.771,7.7913,106.08,42.753
8801.4,54.771,7.7913,106.08,42.753
8811.3,54.771,7.7913,104.08,42.753
8821.2,55.771,7.7913,102.08,42.753
8831.1,55.771,7.7913,101.08,41.753
8840.9,58.771,8.7913,101.08,42.753
8850.8,58.771,8.7913,102.08,41.753
8860.7,59.771,8.7913,100.08,42.753
8870.6,59.771,8.7913,99.077,41.753
8880.5,57.771,7.7913,99.077,41.753
8890.4,57.771,6.7913,102.08,41.753
8900.3,55.771,6.7913,102.08,41.753
8910.1,56.771,6.7913,100.08,40.753
8920.0,52.771,4.7913,100.08,40.753
8929.9,52.771,5.7913,100.08,40.753
8939.8,50.771,4.7913,100.08,40.753
8949.7,48.771,3.7913,102.08,41.753
8959.6,46.771,3.7913,102.08,41.753
8969.5,43.771,1.7913,98.077,41.753
8979.3,39.771,1.7913,98.077,41.753
8989.2,38.771,1.7913,95.077,39.753
8999.1,35.771,0.79126,95.077,39.753
9009.0,34.771,-1.2087,90.077,38.753
9018.9,33.771,-0.20874,90.077,38.753
9028.8,29.771,-1.2087,87.077,36.753
9038.7,28.771,-1.2087,87.077,36.753
9048.5,26.771,-3.2087,84.077,35.753
9058.4,21.771,-3.2087,84.077,35.753
9068.3,20.771,-4.2087,81.077,33.753
9078.2,18.771,-4.2087,81.077,33.753
9088.1,15.771,-6.2087,79.077,35.753
9098.0,10.771,-7.2087,79.077,35.753
9107.9,10.771,-7.2087,77.077,33.753
9117.7,7.7711,-9.2087,75.077,32.753
9127.6,4.7711,-10.209,72.077,33.753
9137.5,0.77109,-12.209,74.077,33.753
9147.4,-1.2289,-12.209,70.077,30.753
9157.3,-3.2289,-13.209,69.077,30.753
9167.2,-7.2289,-13.209,67.077,30.753
9177.1,-7.2289,-13.209,66.077,30.753
9186.9,-8.2289,-12.209,62.077,29.753
9196.8,-7.2289,-12.209,61.077,28.753
9206.7,-5.2289,-11.209,59.077,27.753
9216.6,-4.2289,-10.209,59.077,27.753
9226.5,2.7711,-8.2087,62.077,29.753
9236.4,8.7711,-6.2087,63.077,30.753
9246.3,14.771,-4.2087,69.077,32.753
9256.1,21.771,-2.2087,71.077,33.753
9266.0,28.771,-1.2087,77.077,35.753
9275.9,34.771,-0.20874,80.077,35.753
9285.8,38.771,-0.20874,87.077,37.753
9295.7,43.771,0.79126,92.077,38.753
9305.6,44.771,0.79126,91.077,39.753
9315.5,44.771,0.79126,95.077,39.753
9325.3,45.771,-0.20874,96.077,39.753
9335.2,45.771,0.79126,97.077,39.753
9345.1,44.771,-1.2087,99.077,37.753
9355.0,43.771,-1.2087,98.077,37.753
9364.9,40.771,-2.2087,98.077,37.753
9374.8,41.771,-2.2087,99.077,38.753
9384.7,41.771,-2.2087,96.077,36.753
9394.5,38.771,-3.2087,95.077,35.753
9404.4,36.771,-2.2087,92.077,35.753
9414.3,36.771,-3.2087,91.077,35.753
9424.2,36.771,-1.2087,90.077,36.753
9434.1,39.771,-1.2087,86.077,34.753
9444.0,40.771,-1.2087,85.077,34.753
9453.9,42.771,-0.20874,83.077,33.753
9463.7,44.771,0.79126,82.077,33.753
9473.6,46.771,1.7913,81.077,34.753
9483.5,48.771,1.7913,81.077,34.753
9493.4,51.771,2.7913,81.077,33.753
9503.3,52.771,2.7913,82.077,32.753
9513.2,52.771,1.7913,82.077,33.753
9523.1,52.771,2.7913,82.077,33.753
9532.9,51.771,2.7913,84.077,34.753
9542.8,50.771,2.7913,84.077,34.753
9552.7,51.771,2.7913,84.077,32.753
9562.6,51.771,2.7913,84.077,33.753
9572.5,48.771,0.79126,84.077,33.753
9582.4,48.771,0.79126,82.077,32.753
9592.3,45.771,-0.20874,81.077,32.753
9602.1,45.771,-0.20874,80.077,31.753
9612.0,43.771,0.79126,78.077,32.753
9621.9,43.771,0.79126,75.077,30.753
9631.8,41.771,-0.20874,75.077,29.753
9641.7,41.771,-0.20874,74.077,29.753
9651.6,39.771,-0.20874,73.077,28.753
9661.5,39.771,-0.20874,69.077,27.753
9671.3,36.771,-1.2087,71.077,28.753
9681.2,36.771,-1.2087,68.077,26.753
9691.1,33.771,-2.2087,64.077,27.753
9701.0,33.771,-2.2087,65.077,26.753
9710.9,29.771,-3.2087,62.077,25.753
9720.8,29.771,-3.2087,60.077,25.753
9730.7,29.771,-3.2087,59.077,24.753
9740.5,25.771,-4.2087,56.077,24.753
9750.4,24.771,-5.2087,54.077,22.753
9760.3,21.771,-5.2087,53.077,23.753
9770.2,19.771,-5.2087,52.077,21.753
9780.1,18.771,-6.2087,49.077,22.753
9790.0,17.771,-7.2087,47.077,20.753
9799.9,16.771,-6.2087,48.077,20.753
9809.7,18.771,-5.2087,46.077,20.753
9819.6,19.771,-5.2087,44.077,19.753
9829.5,22.771,-2.2087,43.077,20.753
9839.4,27.771,-0.20874,45.077,20.753
9849.3,33.771,1.7913,46.077,22.753
9859.2,39.771,4.7913,50.077,22.753
9869.1,47.771,6.7913,53.077,24.753
9878.9,53.771,7.7913,59.077,25.753
9888.8,63.771,10.791,59.077,25.753
9898.7,68.771,11.791,67.077,27.753
9908.6,72.771,11.791,67.077,27.753
9918.5,75.771,12.791,74.077,28.753
9928.4,78.771,12.791,74.077,28.753
9938.3,80.771,12.791,80.077,29.753
9948.1,81.771,12.791,80.077,29.753
9958.0,80.771,12.791,79.077,29.753
9967.9,79.771,11.791,79.077,29.753
9977.8,77.771,11.791,80.077,28.753
9987.7,75.771,9.7913,80.077,28.753
9997.6,73.771,10.791,76.077,27.753
10008.0,72.771,10.791,76.077,27.753
10017.0,70.771,9.7913,72.077,25.753
10027.0,70.771,8.7913,72.077,25.753
10037.0,69.771,9.7913,68.077,25.753
10047.0,70.771,9.7913,68.077,25.753
10057.0,73.771,10.791,64.077,23.753
10067.0,72.771,11.791,64.077,23.753
10077.0,73.771,11.791,61.077,23.753
10087.0,75.771,12.791,61.077,23.753
10096.0,75.771,11.791,60.077,23.753
10106.0,75.771,11.791,60.077,23.753
10116.0,76.771,11.791,58.077,23.753
10126.0,76.771,11.791,60.077,22.753
10136.0,77.771,11.791,60.077,23.753
10146.0,75.771,10.791,59.077,23.753
10156.0,74.771,10.791,60.077,22.753
10166.0,74.771,9.7913,59.077,20.753
10176.0,72.771,9.7913,58.077,21.753
10185.0,71.771,9.7913,58.077,21.753
10195.0,68.771,7.7913,57.077,20.753
10205.0,66.771,7.7913,58.077,20.753
10215.0,65.771,7.7913,54.077,19.753
10225.0,63.771,7.7913,52.077,18.753
10235.0,62.771,6.7913,52.077,19.753
10245.0,61.771,6.7913,50.077,19.753
10255.0,59.771,5.7913,47.077,19.753
10265.0,59.771,6.7913,48.077,18.753
10274.0,55.771,6.7913,46.077,18.753
10284.0,54.771,4.7913,44.077,17.753
10294.0,53.771,4.7913,44.077,16.753
10304.0,51.771,5.7913,40.077,17.753
10314.0,49.771,3.7913,39.077,15.753
10324.0,47.771,2.7913,36.077,14.753
10334.0,44.771,2.7913,35.077,14.753
10344.0,42.771,2.7913,34.077,13.753
10354.0,40.771,0.79126,31.077,13.753
10363.0,37.771,-0.20874,30.077,12.753
10373.0,35.771,-0.20874,28.077,11.753
10383.0,32.771,-0.20874,27.077,11.753
10393.0,31.771,-0.20874,24.077,10.753
10403.0,33.771,0.79126,22.077,10.753
10413.0,33.771,1.7913,20.077,7.7526
10423.0,34.771,1.7913,18.077,8.7526
10433.0,34.771,1.7913,18.077,7.7526
10442.0,41.771,5.7913,17.077,9.7526
10452.0,41.771,5.7913,19.077,9.7526
10462.0,52.771,8.7913,22.077,10.753
10472.0,52.771,8.7913,23.077,11.753
10482.0,66.771,12.791,27.077,13.753
10492.0,66.771,12.791,30.077,13.753
10502.0,78.771,13.791,34.077,13.753
10512.0,78.771,13.791,38.077,16.753
10522.0,85.771,14.791,41.077,16.753
10531.0,85.771,14.791,45.077,17.753
10541.0,84.771,13.791,49.077,17.753
10551.0,84.771,13.791,51.077,17.753
10561.0,85.771,12.791,53.077,18.753
10571.0,85.771,12.791,53.077,16.753
10581.0,80.771,10.791,53.077,17.753
10591.0,80.771,10.791,51.077,16.753
10601.0,78.771,10.791,49.077,14.753
10611.0,77.771,10.791,50.077,16.753
10620.0,73.771,10.791,46.077,13.753
10630.0,71.771,8.7913,45.077,14.753
10640.0,68.771,8.7913,44.077,14.753
10650.0,68.771,8.7913,42.077,13.753
10660.0,69.771,9.7913,40.077,13.753
10670.0,68.771,8.7913,36.077,12.753
10680.0,67.771,9.7913,36.077,12.753
10690.0,69.771,9.7913,37.077,12.753
10700.0,70.771,9.7913,35.077,12.753
10709.0,72.771,9.7913,34.077,12.753
10719.0,72.771,10.791,36.077,12.753
10729.0,74.771,11.791,33.077,11.753
10739.0,73.771,10.791,32.077,11.753
10749.0,73.771,9.7913,35.077,12.753
10759.0,73.771,10.791,36.077,11.753
10769.0,70.771,9.7913,36.077,12.753
10779.0,69.771,7.7913,34.077,10.753
10788.0,67.771,8.7913,35.077,12.753
10798.0,64.771,7.7913,34.077,13.753
10808.0,62.771,6.7913,37.077,12.753
10818.0,60.771,6.7913,36.077,12.753
10828.0,58.771,5.7913,36.077,12.753
10838.0,57.771,5.7913,34.077,11.753
10848.0,55.771,5.7913,33.077,11.753
10858.0,52.771,4.7913,29.077,10.753
10868.0,52.771,4.7913,29.077,7.7526
10877.0,51.771,4.7913,25.077,8.7526
10887.0,48.771,3.7913,23.077,7.7526
10897.0,47.771,3.7913,22.077,7.7526
10907.0,44.771,2.7913,22.077,7.7526
10917.0,41.771,1.7913,20.077,6.7526
10927.0,39.771,0.79126,18.077,6.7526
10937.0,37.771,0.79126,16.077,4.7526
10947.0,33.771,-0.20874,14.077,4.7526
10957.0,32.771,-1.2087,12.077,2.7526
10966.0,31.771,-1.2087,11.077,4.7526
10976.0,26.771,-2.2087,9.0773,3.7526
10986.0,26.771,-2.2087,7.0773,3.7526
10996.0,23.771,-3.2087,7.0773,3.7526
11006.0,23.771,-2.2087,4.0773,0.75257
11016.0,22.771,-3.2087,4.0773,0.75257
11026.0,23.771,-2.2087,0.077313,0.75257
11036.0,25.771,-0.20874,0.077313,0.75257
11045.0,29.771,0.79126,0.077313,0.75257
11055.0,32.771,2.7913,0.077313,0.75257
11065.0,41.771,5.7913,8.0773,3.7526
11075.0,45.771,6.7913,8.0773,3.7526
11085.0,52.771,8.7913,15.077,6.7526
11095.0,57.771,9.7913,15.077,6.7526
11105.0,63.771,10.791,22.077,6.7526
11115.0,69.771,11.791,22.077,6.7526
11125.0,71.771,12.791,32.077,9.7526
11134.0,73.771,12.791,32.077,9.7526
11144.0,76.771,12.791,37.077,11.753
11154.0,75.771,11.791,37.077,11.753
11164.0,75.771,12.791,39.077,11.753
11174.0,74.771,11.791,39.077,11.753
11184.0,72.771,10.791,41.077,11.753
11194.0,70.771,10.791,41.077,11.753
11204.0,69.771,8.7913,38.077,11.753
11214.0,66.771,9.7913,39.077,9.7526
11223.0,63.771,9.7913,36.077,9.7526
11233.0,61.771,8.7913,34.077,8.7526
11243.0,62.771,8.7913,32.077,7.7526
11253.0,62.771,8.7913,30.077,7.7526
11263.0,61.771,8.7913,26.077,5.7526
11273.0,63.771,8.7913,26.077,6.7526
11283.0,63.771,8.7913,25.077,6.7526
11293.0,64.771,10.791,24.077,6.7526
11303.0,64.771,10.791,24.077,6.7526
11312.0,68.771,10.791,24.077,5.7526
11322.0,68.771,10.791,23.077,6.7526
11332.0,67.771,10.791,25.077,6.7526
11342.0,67.771,10.791,25.077,6.7526
11352.0,67.771,10.791,25.077,7.7526
11362.0,67.771,10.791,25.077,6.7526
11372.0,65.771,9.7913,26.077,7.7526
11382.0,65.771,9.7913,27.077,5.7526
11391.0,62.771,8.7913,25.077,5.7526
11401.0,62.771,8.7913,25.077,6.7526
11411.0,57.771,6.7913,25.077,6.7526
11421.0,57.771,6.7913,24.077,6.7526
11431.0,53.771,6.7913,25.077,5.7526
11441.0,53.771,6.7913,21.077,5.7526
11451.0,51.771,6.7913,22.077,5.7526
11461.0,50.771,5.7913,20.077,5.7526
11471.0,48.771,5.7913,20.077,4.7526
11480.0,47.771,5.7913,17.077,3.7526
11490.0,45.771,4.7913,16.077,4.7526
11500.0,44.771,4.7913,16.077,1.7526
11510.0,41.771,4.7913,15.077,2.7526
11520.0,38.771,2.7913,13.077,2.7526
11530.0,38.771,2.7913,9.0773,1.7526
11540.0,35.771,0.79126,7.0773,0.75257
11550.0,33.771,1.7913,7.0773,0.75257
11560.0,30.771,0.79126,7.0773,0.75257
11569.0,28.771,-0.20874,5.0773,0.75257
11579.0,26.771,-0.20874,3.0773,-0.24743
11589.0,24.771,-0.20874,1.0773,-0.24743
11599.0,22.771,-2.2087,1.0773,-1.2474
11609.0,19.771,-1.2087,-0.92269,-1.2474
11619.0,21.771,-1.2087,-3.9227,-2.2474
11629.0,21.771,-0.20874,-3.9227,-3.2474
11639.0,19.771,-0.20874,-6.9227,-3.2474
11649.0,20.771,0.79126,-7.9227,-2.2474
11658.0,26.771,2.7913,-4.9227,-2.2474
11668.0,32.771,4.7913,-1.9227,-1.2474
11678.0,38.771,5.7913,1.0773,-1.2474
11688.0,41.771,7.7913,3.0773,2.7526
11698.0,49.771,8.7913,8.0773,3.7526
11708.0,54.771,9.7913,14.077,3.7526
11718.0,59.771,11.791,18.077,6.7526
11728.0,63.771,11.791,22.077,6.7526
11737.0,66.771,11.791,26.077,7.7526
11747.0,68.771,11.791,29.077,7.7526
11757.0,68.771,10.791,33.077,7.7526
11767.0,69.771,11.791,31.077,9.7526
11777.0,66.771,9.7913,34.077,8.7526
11787.0,63.771,9.7913,34.077,8.7526
11797.0,61.771,9.7913,34.077,8.7526
11807.0,57.771,7.7913,31.077,7.7526
11817.0,57.771,7.7913,30.077,6.7526
11826.0,55.771,7.7913,27.077,4.7526
11836.0,52.771,7.7913,27.077,5.7526
11846.0,51.771,6.7913,25.077,4.7526
11856.0,51.771,7.7913,23.077,5.7526
11866.0,51.771,7.7913,21.077,4.7526
11876.0,51.771,6.7913,19.077,3.7526
11886.0,52.771,7.7913,19.077,3.7526
11896.0,51.771,7.7913,16.077,4.7526
11906.0,53.771,7.7913,17.077,3.7526
11915.0,54.771,8.7913,17.077,3.7526
11925.0,55.771,9.7913,17.077,4.7526
11935.0,54.771,8.7913,16.077,4.7526
11945.0,54.771,7.7913,17.077,3.7526
11955.0,53.771,7.7913,17.077,3.7526
11965.0,52.771,6.7913,17.077,5.7526
11975.0,50.771,5.7913,19.077,2.7526
11985.0,47.771,4.7913,18.077,3.7526
11995.0,44.771,4.7913,20.077,4.7526
12004.0,42.771,3.7913,20.077,3.7526
12014.0,40.771,2.7913,18.077,3.7526
12024.0,37.771,1.7913,18.077,3.7526
12034.0,34.771,2.7913,16.077,3.7526
12044.0,33.771,1.7913,16.077,3.7526
12054.0,31.771,0.79126,15.077,3.7526
12064.0,27.771,-1.2087,15.077,3.7526
12074.0,25.771,-1.2087,12.077,2.7526
12083.0,24.771,-0.20874,12.077,2.7526
12093.0,22.771,-1.2087,10.077,2.7526
12103.0,21.771,-2.2087,10.077,2.7526
12113.0,21.771,-2.2087,6.0773,0.75257
12123.0,14.771,-4.2087,6.0773,0.75257
12133.0,14.771,-4.2087,1.0773,-1.2474
12143.0,8.7711,-5.2087,1.0773,-1.2474
12153.0,8.7711,-5.2087,-0.92269,-1.2474
12163.0,4.7711,-7.2087,-0.92269,-1.2474
12172.0,4.7711,-7.2087,-2.9227,-1.2474
12182.0,0.77109,-8.2087,-2.9227,-1.2474
12192.0,0.77109,-8.2087,-5.9227,-3.2474
12202.0,-4.2289,-10.209,-5.9227,-3.2474
12212.0,-4.2289,-10.209,-7.9227,-3.2474
12222.0,-5.2289,-8.2087,-7.9227,-3.2474
12232.0,-5.2289,-8.2087,-9.9227,-3.2474
12242.0,-5.2289,-8.2087,-12.923,-4.2474
12252.0,-5.2289,-8.2087,-12.923,-3.2474
12261.0,2.7711,-4.2087,-13.923,-4.2474
12271.0,2.7711,-4.2087,-10.923,-3.2474
12281.0,7.7711,-3.2087,-9.9227,-2.2474
12291.0,12.771,-2.2087,-3.9227,-1.2474
12301.0,18.771,-0.20874,-2.9227,-1.2474
12311.0,23.771,-0.20874,2.0773,2.7526
12321.0,27.771,1.7913,6.0773,1.7526
12331.0,32.771,1.7913,10.077,3.7526
12341.0,34.771,1.7913,15.077,4.7526
12350.0,35.771,1.7913,18.077,5.7526
12360.0,36.771,1.7913,19.077,7.7526
12370.0,35.771,-0.20874,22.077,5.7526
12380.0,33.771,0.79126,23.077,5.7526
12390.0,30.771,-1.2087,21.077,6.7526
12400.0,28.771,-2.2087,23.077,5.7526
12410.0,26.771,-3.2087,22.077,5.7526
12420.0,24.771,-3.2087,18.077,3.7526
12429.0,23.771,-3.2087,16.077,2.7526
12439.0,21.771,-3.2087,15.077,2.7526
12449.0,18.771,-4.2087,15.077,2.7526
12459.0,18.771,-4.2087,11.077,0.75257
12469.0,18.771,-3.2087,11.077,2.7526
12479.0,17.771,-4.2087,11.077,2.7526
12489.0,17.771,-3.2087,8.0773,1.7526
12499.0,20.771,-3.2087,7.0773,2.7526
12509.0,22.771,-2.2087,7.0773,-0.24743
12518.0,23.771,-2.2087,8.0773,1.7526
12528.0,24.771,-2.2087,8.0773,2.7526
12538.0,24.771,-2.2087,8.0773,1.7526
12548.0,24.771,-1.2087,10.077,2.7526
12558.0,24.771,-2.2087,9.0773,2.7526
12568.0,24.771,-2.2087,10.077,2.7526
12578.0,23.771,-2.2087,9.0773,2.7526
12588.0,22.771,-3.2087,11.077,2.7526
12598.0,18.771,-3.2087,7.0773,2.7526
12607.0,18.771,-4.2087,10.077,2.7526
12617.0,16.771,-5.2087,9.0773,2.7526
12627.0,15.771,-5.2087,11.077,1.7526
12637.0,11.771,-5.2087,9.0773,2.7526
12647.0,10.771,-6.2087,7.0773,2.7526
12657.0,8.7711,-7.2087,6.0773,1.7526
12667.0,6.7711,-7.2087,5.0773,1.7526
12677.0,4.7711,-7.2087,5.0773,-0.24743
12687.0,3.7711,-8.2087,2.0773,0.75257
12696.0,1.7711,-8.2087,3.0773,-0.24743
12706.0,-0.22891,-9.2087,1.0773,-0.24743
12716.0,-1.2289,-9.2087,1.0773,-2.2474
12726.0,-5.2289,-10.209,-0.92269,-0.24743
12736.0,-6.2289,-10.209,-1.9227,-1.2474
12746.0,-9.2289,-12.209,-4.9227,-2.2474
12756.0,-10.229,-12.209,-7.9227,-2.2474
12766.0,-13.229,-13.209,-7.9227,-2.2474
12775.0,-17.229,-13.209,-8.9227,-3.2474
12785.0,-19.229,-13.209,-11.923,-3.2474
12795.0,-20.229,-14.209,-13.923,-3.2474
12805.0,-22.229,-14.209,-11.923,-3.2474
12815.0,-23.229,-14.209,-12.923,-4.2474
12825.0,-24.229,-14.209,-15.923,-6.2474
12835.0,-25.229,-14.209,-19.923,-7.2474
12845.0,-24.229,-14.209,-20.923,-7.2474
12855.0,-24.229,-13.209,-21.923,-7.2474
12864.0,-19.229,-10.209,-20.923,-7.2474
12874.0,-12.229,-9.2087,-18.923,-6.2474
12884.0,-7.2289,-7.2087,-14.923,-4.2474
12894.0,-1.2289,-5.2087,-14.923,-3.2474
12904.0,4.7711,-3.2087,-8.9227,-1.2474
12914.0,11.771,-3.2087,-4.9227,-0.24743
12924.0,16.771,-2.2087,-1.9227,0.75257
12934.0,18.771,-2.2087,2.0773,2.7526
12944.0,21.771,-1.2087,8.0773,1.7526
12953.0,22.771,-2.2087,11.077,4.7526
12963.0,22.771,-2.2087,13.077,2.7526
12973.0,20.771,-2.2087,14.077,2.7526
12983.0,20.771,-2.2087,14.077,2.7526
12993.0,18.771,-4.2087,13.077,2.7526
13003.0,18.771,-4.2087,13.077,-0.24743
13013.0,14.771,-5.2087,14.077,1.7526
13023.0,14.771,-5.2087,10.077,1.7526
13033.0,7.7711,-6.2087,9.0773,0.75257
13042.0,7.7711,-6.2087,8.0773,-0.24743
13052.0,4.7711,-6.2087,6.0773,-0.24743
13062.0,4.7711,-6.2087,3.0773,-1.2474
13072.0,5.7711,-5.2087,1.0773,-0.24743
13082.0,5.7711,-5.2087,0.077313,-0.24743
13092.0,7.7711,-4.2087,-1.9227,-2.2474
13102.0,7.7711,-4.2087,-3.9227,-2.2474
13112.0,12.771,-2.2087,-3.9227,-2.2474
13121.0,12.771,-2.2087,-5.9227,-3.2474
13131.0,14.771,-2.2087,-5.9227,-3.2474
13141.0,15.771,-2.2087,-4.9227,-2.2474
13151.0,14.771,-2.2087,-4.9227,-2.2474
13161.0,17.771,-2.2087,-3.9227,-2.2474
13171.0,16.771,-2.2087,-3.9227,-2.2474
13181.0,15.771,-2.2087,-3.9227,-2.2474
13191.0,15.771,-3.2087,-3.9227,-2.2474
13201.0,14.771,-3.2087,-1.9227,-3.2474
13210.0,14.771,-3.2087,-1.9227,-3.2474
13220.0,11.771,-4.2087,-0.92269,-2.2474
13230.0,8.7711,-4.2087,-0.92269,-2.2474
13240.0,9.7711,-5.2087,-1.9227,-2.2474
13250.0,6.7711,-5.2087,-1.9227,-2.2474
13260.0,4.7711,-5.2087,-5.9227,-3.2474
13270.0,3.7711,-5.2087,-5.9227,-3.2474
13280.0,2.7711,-6.2087,-7.9227,-4.2474
13290.0,0.77109,-6.2087,-7.9227,-4.2474
13299.0,-0.22891,-6.2087,-13.923,-6.2474
13309.0,-1.2289,-6.2087,-13.923,-6.2474
13319.0,-2.2289,-7.2087,-13.923,-7.2474
13329.0,-4.2289,-8.2087,-17.923,-8.2474
13339.0,-7.2289,-8.2087,-17.923,-8.2474
13349.0,-8.2289,-8.2087,-18.923,-7.2474
13359.0,-10.229,-10.209,-20.923,-9.2474
13369.0,-12.229,-10.209,-22.923,-9.2474
13379.0,-15.229,-10.209,-23.923,-8.2474
13388.0,-16.229,-11.209,-24.923,-11.247
13398.0,-19.229,-12.209,-25.923,-9.2474
13408.0,-21.229,-12.209,-26.923,-11.247
13418.0,-22.229,-12.209,-26.923,-10.247
13428.0,-22.229,-12.209,-27.923,-9.2474
13438.0,-21.229,-12.209,-29.923,-11.247
13448.0,-22.229,-10.209,-30.923,-11.247
13458.0,-19.229,-9.2087,-31.923,-11.247
13467.0,-17.229,-7.2087,-33.923,-12.247
13477.0,-12.229,-5.2087,-31.923,-10.247
13487.0,-5.2289,-3.2087,-28.923,-8.2474
13497.0,0.77109,-1.2087,-25.923,-7.2474
13507.0,7.7711,-0.20874,-21.923,-6.2474
13517.0,14.771,1.7913,-18.923,-5.2474
13527.0,22.771,2.7913,-12.923,-5.2474
13537.0,25.771,2.7913,-8.9227,-4.2474
13547.0,29.771,2.7913,-5.9227,-3.2474
13556.0,30.771,3.7913,0.077313,-1.2474
13566.0,29.771,2.7913,1.0773,-0.24743
13576.0,30.771,2.7913,4.0773,-0.24743
13586.0,30.771,1.7913,4.0773,-0.24743
13596.0,28.771,0.79126,6.0773,-1.2474
13606.0,27.771,0.79126,6.0773,-1.2474
13616.0,24.771,-0.20874,5.0773,-2.2474
13626.0,23.771,-0.20874,5.0773,-1.2474
13636.0,21.771,-0.20874,2.0773,-2.2474
13645.0,19.771,-1.2087,0.077313,-3.2474
13655.0,17.771,-1.2087,0.077313,-3.2474
13665.0,17.771,-1.2087,-1.9227,-4.2474
13675.0,16.771,-1.2087,-2.9227,-3.2474
13685.0,19.771,-0.20874,-4.9227,-4.2474
13695.0,19.771,-0.20874,-7.9227,-4.2474
13705.0,20.771,-0.20874,-7.9227,-5.2474
13715.0,22.771,1.7913,-7.9227,-5.2474
13725.0,25.771,1.7913,-9.9227,-4.2474
13734.0,26.771,2.7913,-7.9227,-5.2474
13744.0,28.771,1.7913,-8.9227,-3.2474
13754.0,28.771,1.7913,-8.9227,-4.2474
13764.0,29.771,1.7913,-8.9227,-5.2474
13774.0,29.771,2.7913,-7.9227,-4.2474
13784.0,29.771,2.7913,-5.9227,-4.2474
13794.0,28.771,1.7913,-6.9227,-4.2474
13804.0,27.771,1.7913,-5.9227,-4.2474
13813.0,27.771,1.7913,-5.9227,-3.2474
13823.0,24.771,1.7913,-5.9227,-4.2474
13833.0,24.771,1.7913,-5.9227,-4.2474
13843.0,22.771,0.79126,-4.9227,-4.2474
13853.0,22.771,0.79126,-6.9227,-6.2474
13863.0,19.771,-0.20874,-5.9227,-4.2474
13873.0,19.771,-0.20874,-8.9227,-6.2474
13883.0,17.771,-1.2087,-9.9227,-6.2474
13893.0,17.771,-1.2087,-10.923,-6.2474
13902.0,14.771,-1.2087,-12.923,-6.2474
13912.0,14.771,-1.2087,-13.923,-7.2474
13922.0,12.771,-2.2087,-13.923,-7.2474
13932.0,12.771,-2.2087,-15.923,-7.2474
13942.0,8.7711,-3.2087,-16.923,-7.2474
13952.0,8.7711,-3.2087,-18.923,-8.2474
13962.0,3.7711,-4.2087,-20.923,-8.2474
13972.0,3.7711,-4.2087,-21.923,-10.247
13982.0,2.7711,-4.2087,-23.923,-11.247
13991.0,1.7711,-5.2087,-24.923,-12.247
14001.0,-0.22891,-6.2087,-26.923,-11.247
14011.0,-2.2289,-6.2087,-26.923,-12.247
14021.0,-4.2289,-7.2087,-28.923,-12.247
14031.0,-6.2289,-7.2087,-28.923,-11.247
14041.0,-7.2289,-7.2087,-31.923,-12.247
14051.0,-5.2289,-5.2087,-31.923,-13.247
14061.0,-6.2289,-5.2087,-33.923,-13.247
14071.0,-3.2289,-4.2087,-34.923,-14.247
14080.0,-1.2289,-3.2087,-32.923,-13.247
14090.0,4.7711,-1.2087,-31.923,-11.247
14100.0,11.771,1.7913,-27.923,-10.247
14110.0,17.771,3.7913,-24.923,-9.2474
14120.0,24.771,5.7913,-21.923,-8.2474
14130.0,32.771,7.7913,-13.923,-5.2474
14140.0,39.771,9.7913,-13.923,-5.2474
14150.0,46.771,10.791,-5.9227,-4.2474
14159.0,50.771,11.791,-5.9227,-4.2474
14169.0,51.771,11.791,2.0773,-3.2474
14179.0,55.771,11.791,4.0773,-2.2474
14189.0,53.771,11.791,6.0773,-1.2474
14199.0,54.771,11.791,6.0773,-1.2474
14209.0,54.771,10.791,9.0773,-0.24743
14219.0,52.771,9.7913,9.0773,-0.24743
14229.0,51.771,9.7913,7.0773,-2.2474
14239.0,51.771,7.7913,7.0773,-2.2474
14248.0,48.771,7.7913,6.0773,-2.2474
14258.0,48.771,8.7913,6.0773,-2.2474
14268.0,47.771,8.7913,2.0773,-4.2474
14278.0,47.771,7.7913,2.0773,-4.2474
14288.0,48.771,8.7913,-0.92269,-4.2474
14298.0,46.771,9.7913,-0.92269,-4.2474
14308.0,49.771,9.7913,-2.9227,-4.2474
14318.0,51.771,10.791,-2.9227,-4.2474
14328.0,53.771,10.791,-3.9227,-5.2474
14337.0,53.771,11.791,-3.9227,-5.2474
14347.0,55.771,11.791,-3.9227,-4.2474
14357.0,55.771,11.791,-3.9227,-4.2474
14367.0,56.771,11.791,-3.9227,-4.2474
14377.0,58.771,11.791,-3.9227,-4.2474
14387.0,58.771,12.791,-0.92269,-3.2474
14397.0,57.771,11.791,-0.92269,-3.2474
14407.0,56.771,10.791,0.077313,-4.2474
14417.0,57.771,12.791,1.0773,-3.2474
14426.0,55.771,9.7913,0.077313,-4.2474
14436.0,54.771,11.791,-0.92269,-4.2474
14446.0,53.771,10.791,1.0773,-3.2474
14456.0,51.771,9.7913,1.0773,-4.2474
14466.0,49.771,9.7913,-1.9227,-4.2474
14476.0,47.771,10.791,0.077313,-4.2474
14486.0,45.771,9.7913,-1.9227,-3.2474
14496.0,44.771,8.7913,-0.92269,-5.2474
14505.0,43.771,8.7913,-4.9227,-6.2474
14515.0,41.771,7.7913,-5.9227,-5.2474
14525.0,39.771,8.7913,-6.9227,-5.2474
14535.0,38.771,7.7913,-7.9227,-5.2474
14545.0,37.771,7.7913,-8.9227,-7.2474
14555.0,36.771,6.7913,-10.923,-7.2474
14565.0,34.771,5.7913,-12.923,-7.2474
14575.0,32.771,4.7913,-13.923,-8.2474
14585.0,31.771,4.7913,-13.923,-8.2474
14594.0,27.771,4.7913,-15.923,-8.2474
14604.0,25.771,3.7913,-16.923,-10.247
14614.0,22.771,2.7913,-20.923,-10.247
14624.0,21.771,2.7913,-18.923,-10.247
14634.0,19.771,1.7913,-20.923,-11.247
14644.0,16.771,0.79126,-21.923,-10.247
14654.0,14.771,0.79126,-22.923,-10.247
14664.0,14.771,0.79126,-23.923,-9.2474
14674.0,13.771,1.7913,-23.923,-10.247
14683.0,13.771,1.7913,-23.923,-11.247
14693.0,15.771,2.7913,-27.923,-11.247
14703.0,15.771,2.7913,-28.923,-12.247
14713.0,23.771,6.7913,-28.923,-11.247
14723.0,23.771,6.7913,-25.923,-10.247
14733.0,38.771,10.791,-22.923,-8.2474
14743.0,38.771,10.791,-20.923,-8.2474
14753.0,49.771,13.791,-14.923,-5.2474
14763.0,49.771,13.791,-10.923,-4.2474
14772.0,61.771,15.791,-3.9227,-4.2474
14782.0,61.771,15.791,2.0773,-2.2474
14792.0,69.771,16.791,3.0773,-1.2474
14802.0,69.771,16.791,10.077,-0.24743
14812.0,71.771,16.791,10.077,0.75257
14822.0,71.771,16.791,12.077,0.75257
14832.0,72.771,15.791,15.077,0.75257
14842.0,69.771,15.791,15.077,0.75257
14851.0,68.771,13.791,14.077,0.75257
14861.0,67.771,13.791,15.077,-0.24743
14871.0,64.771,12.791,13.077,-0.24743
14881.0,63.771,12.791,11.077,-0.24743
14891.0,60.771,12.791,9.0773,-3.2474
14901.0,61.771,12.791,9.0773,-1.2474
14911.0,59.771,12.791,9.0773,-1.2474
14921.0,59.771,12.791,5.0773,-1.2474
14931.0,60.771,13.791,5.0773,-1.2474
14940.0,61.771,13.791,6.0773,-2.2474
14950.0,62.771,13.791,3.0773,-3.2474
14960.0,65.771,14.791,2.0773,-2.2474
14970.0,66.771,14.791,2.0773,-2.2474
14980.0,65.771,14.791,3.0773,-2.2474
14990.0,68.771,14.791,3.0773,-2.2474
15000.0,67.771,14.791,2.0773,-2.2474
15010.0,67.771,14.791,5.0773,-3.2474
15020.0,67.771,13.791,6.0773,-3.2474
15029.0,66.771,14.791,5.0773,-2.2474
15039.0,66.771,14.791,5.0773,-1.2474
15049.0,65.771,12.791,5.0773,-2.2474
15059.0,61.771,12.791,5.0773,-1.2474
15069.0,60.771,11.791,6.0773,-2.2474
15079.0,58.771,11.791,5.0773,-3.2474
15089.0,55.771,10.791,4.0773,-1.2474
15099.0,54.771,9.7913,7.0773,-1.2474
15109.0,54.771,10.791,6.0773,-1.2474
15118.0,51.771,8.7913,3.0773,-4.2474
15128.0,50.771,8.7913,1.0773,-3.2474
15138.0,47.771,7.7913,1.0773,-4.2474
15148.0,47.771,7.7913,-1.9227,-5.2474
15158.0,42.771,7.7913,-4.9227,-5.2474
15168.0,42.771,5.7913,-4.9227,-5.2474
15178.0,39.771,5.7913,-7.9227,-7.2474
15188.0,36.771,5.7913,-8.9227,-6.2474
15197.0,35.771,4.7913,-8.9227,-6.2474
15207.0,33.771,4.7913,-11.923,-7.2474
15217.0,31.771,2.7913,-12.923,-7.2474
15227.0,27.771,1.7913,-14.923,-8.2474
15237.0,25.771,1.7913,-15.923,-9.2474
15247.0,24.771,0.79126,-15.923,-8.2474
15257.0,21.771,0.79126,-16.923,-8.2474
15267.0,18.771,-0.20874,-17.923,-9.2474
15277.0,17.771,-0.20874,-18.923,-10.247
15286.0,14.771,-2.2087,-18.923,-10.247
15296.0,11.771,-2.2087,-21.923,-10.247
15306.0,10.771,-3.2087,-21.923,-10.247
15316.0,9.7711,-3.2087,-22.923,-11.247
15326.0,9.7711,-2.2087,-22.923,-11.247
15336.0,10.771,-1.2087,-27.923,-12.247
15346.0,11.771,-0.20874,-27.923,-12.247
15356.0,14.771,1.7913,-27.923,-11.247
15366.0,18.771,2.7913,-27.923,-11.247
15375.0,25.771,4.7913,-21.923,-9.2474
15385.0,32.771,6.7913,-21.923,-9.2474
15395.0,38.771,7.7913,-14.923,-7.2474
15405.0,45.771,8.7913,-14.923,-7.2474
15415.0,51.771,9.7913,-4.9227,-4.2474
15425.0,55.771,10.791,-4.9227,-4.2474
15435.0,57.771,10.791,5.0773,-1.2474
15445.0,59.771,10.791,5.0773,-1.2474
15455.0,62.771,10.791,12.077,-0.24743
15464.0,61.771,10.791,12.077,-0.24743
15474.0,61.771,9.7913,14.077,-0.24743
15484.0,60.771,9.7913,14.077,-0.24743
15494.0,56.771,8.7913,13.077,0.75257
15504.0,56.771,7.7913,16.077,-0.24743
15514.0,56.771,7.7913,13.077,-0.24743
15524.0,53.771,6.7913,11.077,-2.2474
15534.0,53.771,6.7913,8.0773,-3.2474
15543.0,49.771,5.7913,8.0773,-3.2474
15553.0,49.771,5.7913,6.0773,-5.2474
15563.0,48.771,6.7913,5.0773,-4.2474
15573.0,48.771,6.7913,4.0773,-3.2474
15583.0,49.771,7.7913,2.0773,-5.2474
15593.0,49.771,7.7913,1.0773,-4.2474
15603.0,51.771,6.7913,1.0773,-4.2474
15613.0,51.771,6.7913,2.0773,-3.2474
15623.0,54.771,6.7913,2.0773,-3.2474
15632.0,54.771,6.7913,1.0773,-2.2474
15642.0,55.771,7.7913,1.0773,-3.2474
15652.0,55.771,7.7913,3.0773,-3.2474
15662.0,55.771,6.7913,4.0773,-2.2474
15672.0,55.771,6.7913,3.0773,-3.2474
15682.0,52.771,6.7913,5.0773,-2.2474
15692.0,52.771,5.7913,3.0773,-3.2474
15702.0,50.771,4.7913,4.0773,-2.2474
15712.0,47.771,3.7913,4.0773,-2.2474
15721.0,45.771,3.7913,4.0773,-2.2474
15731.0,45.771,3.7913,3.0773,-4.2474
15741.0,42.771,3.7913,2.0773,-4.2474
15751.0,40.771,2.7913,2.0773,-4.2474
15761.0,38.771,1.7913,0.077313,-5.2474
15771.0,37.771,1.7913,-0.92269,-7.2474
15781.0,34.771,0.79126,-2.9227,-5.2474
15791.0,32.771,0.79126,-3.9227,-6.2474
15801.0,32.771,0.79126,-5.9227,-7.2474
15810.0,29.771,-1.2087,-7.9227,-8.2474
15820.0,28.771,-1.2087,-9.9227,-8.2474
15830.0,24.771,-2.2087,-9.9227,-7.2474
15840.0,23.771,-2.2087,-11.923,-8.2474
15850.0,20.771,-2.2087,-13.923,-9.2474
15860.0,18.771,-2.2087,-13.923,-10.247
15870.0,17.771,-5.2087,-15.923,-9.2474
15880.0,15.771,-5.2087,-17.923,-9.2474
15889.0,13.771,-5.2087,-19.923,-10.247
15899.0,10.771,-6.2087,-20.923,-11.247
15909.0,8.7711,-7.2087,-21.923,-12.247
15919.0,4.7711,-7.2087,-21.923,-12.247
15929.0,3.7711,-8.2087,-24.923,-11.247
15939.0,-0.22891,-9.2087,-24.923,-13.247
15949.0,-2.2289,-9.2087,-27.923,-13.247
15959.0,-5.2289,-10.209,-27.923,-14.247
15969.0,-7.2289,-11.209,-28.923,-12.247
15978.0,-7.2289,-11.209,-27.923,-14.247
15988.0,-7.2289,-10.209,-28.923,-13.247
15998.0,-5.2289,-10.209,-31.923,-13.247
16008.0,-6.2289,-9.2087,-32.923,-14.247
16018.0,-3.2289,-6.2087,-34.923,-15.247
16028.0,0.77109,-5.2087,-31.923,-13.247
16038.0,6.7711,-3.2087,-26.923,-12.247
16048.0,13.771,-1.2087,-25.923,-11.247
16058.0,18.771,-0.20874,-23.923,-9.2474
16067.0,26.771,0.79126,-17.923,-9.2474
16077.0,29.771,1.7913,-14.923,-8.2474
16087.0,35.771,2.7913,-9.9227,-7.2474