t,carotid_880nm,carotid_660nm,brachial_880nm,brachial_660nm
2.1,136.1,94.974,42.033,11.627
12.0,140.1,94.974,42.033,11.627
21.9,143.1,96.974,49.033,11.627
31.8,147.1,99.974,58.033,14.627
41.6,151.1,101.97,64.033,15.627
51.5,155.1,102.97,72.033,16.627
61.4,156.1,102.97,76.033,18.627
71.3,159.1,103.97,81.033,19.627
81.2,162.1,102.97,84.033,20.627
91.1,162.1,102.97,89.033,21.627
101.0,162.1,102.97,94.033,23.627
110.8,163.1,101.97,96.033,24.627
120.7,164.1,103.97,98.033,25.627
130.6,168.1,103.97,103.03,25.627
140.5,167.1,102.97,103.03,26.627
150.4,167.1,103.97,103.03,27.627
160.3,168.1,105.97,103.03,27.627
170.2,168.1,105.97,103.03,26.627
180.0,169.1,104.97,103.03,26.627
189.9,169.1,103.97,102.03,27.627
199.8,171.1,104.97,100.03,27.627
209.7,171.1,102.97,99.033,27.627
219.6,170.1,104.97,97.033,26.627
229.5,170.1,104.97,99.033,26.627
239.4,173.1,104.97,98.033,27.627
249.2,173.1,105.97,96.033,27.627
259.1,174.1,105.97,95.033,26.627
269.0,172.1,105.97,99.033,25.627
278.9,171.1,104.97,99.033,26.627
288.8,171.1,104.97,99.033,27.627
298.7,171.1,103.97,98.033,25.627
308.6,172.1,102.97,96.033,25.627
318.4,171.1,103.97,97.033,25.627
328.3,170.1,101.97,97.033,26.627
338.2,170.1,101.97,96.033,27.627
348.1,170.1,99.974,97.033,25.627
358.0,168.1,99.974,98.033,25.627
367.9,164.1,99.974,97.033,25.627
377.8,164.1,98.974,99.033,27.627
387.6,164.1,97.974,97.033,26.627
397.5,164.1,98.974,95.033,27.627
407.4,161.1,96.974,95.033,26.627
417.3,159.1,95.974,93.033,25.627
427.2,162.1,96.974,93.033,24.627
437.1,161.1,97.974,93.033,25.627
447.0,160.1,97.974,91.033,25.627
456.8,160.1,96.974,89.033,24.627
466.7,160.1,96.974,88.033,23.627
476.6,157.1,93.974,88.033,24.627
486.5,156.1,93.974,85.033,23.627
496.4,154.1,93.974,84.033,23.627
506.3,154.1,91.974,82.033,23.627
516.2,153.1,92.974,82.033,22.627
526.0,152.1,91.974,79.033,22.627
535.9,149.1,89.974,77.033,22.627
545.8,148.1,89.974,79.033,23.627
555.7,147.1,88.974,77.033,22.627
565.6,146.1,88.974,76.033,22.627
575.5,146.1,88.974,72.033,21.627
585.4,141.1,87.974,73.033,21.627
595.2,141.1,87.974,71.033,20.627
605.1,140.1,84.974,69.033,21.627
615.0,140.1,84.974,70.033,19.627
624.9,135.1,83.974,69.033,19.627
634.8,135.1,83.974,66.033,20.627
644.7,133.1,81.974,67.033,19.627
654.6,133.1,81.974,65.033,18.627
664.4,132.1,80.974,64.033,18.627
674.3,132.1,80.974,64.033,18.627
684.2,125.1,78.974,62.033,18.627
694.1,125.1,78.974,60.033,18.627
704.0,122.1,77.974,62.033,19.627
713.9,122.1,77.974,59.033,18.627
723.8,121.1,76.974,60.033,18.627
733.6,121.1,76.974,57.033,18.627
743.5,118.1,74.974,57.033,18.627
753.4,117.1,75.974,57.033,18.627
763.3,116.1,74.974,54.033,17.627
773.2,114.1,73.974,53.033,17.627
783.1,114.1,72.974,54.033,18.627
793.0,111.1,72.974,54.033,18.627
802.8,110.1,70.974,53.033,18.627
812.7,108.1,70.974,52.033,18.627
822.6,105.1,68.974,49.033,17.627
832.5,105.1,68.974,50.033,17.627
842.4,104.1,68.974,50.033,17.627
852.3,101.1,66.974,47.033,18.627
862.2,101.1,66.974,47.033,18.627
872.0,98.096,65.974,48.033,19.627
881.9,97.096,66.974,48.033,19.627
891.8,97.096,66.974,46.033,19.627
901.7,100.1,67.974,46.033,19.627
911.6,98.096,66.974,43.033,17.627
921.5,97.096,67.974,43.033,17.627
931.4,99.096,68.974,42.033,17.627
941.2,102.1,71.974,42.033,17.627
951.1,105.1,72.974,41.033,18.627
961.0,107.1,74.974,41.033,18.627
970.9,113.1,76.974,46.033,20.627
980.8,118.1,79.974,46.033,20.627
990.7,122.1,79.974,59.033,24.627
1000.6,125.1,81.974,59.033,24.627
1010.4,130.1,81.974,73.033,25.627
1020.3,130.1,82.974,73.033,25.627
1030.2,135.1,83.974,80.033,28.627
1040.1,137.1,83.974,89.033,29.627
1050.0,141.1,87.974,96.033,31.627
1059.9,143.1,88.974,104.03,32.627
1069.8,147.1,89.974,112.03,36.627
1079.6,150.1,90.974,113.03,34.627
1089.5,151.1,89.974,118.03,36.627
1099.4,151.1,90.974,120.03,37.627
1109.3,152.1,91.974,125.03,38.627
1119.2,152.1,90.974,129.03,42.627
1129.1,157.1,91.974,131.03,41.627
1139.0,157.1,91.974,135.03,41.627
1148.8,156.1,91.974,137.03,42.627
1158.7,158.1,92.974,135.03,43.627
1168.6,158.1,93.974,137.03,43.627
1178.5,158.1,93.974,137.03,44.627
1188.4,160.1,92.974,137.03,44.627
1198.3,158.1,93.974,138.03,45.627
1208.2,160.1,93.974,136.03,44.627
1218.0,162.1,94.974,136.03,43.627
1227.9,164.1,94.974,134.03,44.627
1237.8,165.1,94.974,134.03,44.627
1247.7,163.1,94.974,133.03,45.627
1257.6,165.1,94.974,132.03,44.627
1267.5,165.1,94.974,133.03,44.627
1277.4,165.1,95.974,131.03,43.627
1287.2,164.1,94.974,134.03,43.627
1297.1,164.1,93.974,135.03,44.627
1307.0,163.1,93.974,135.03,43.627
1316.9,162.1,92.974,131.03,43.627
1326.8,163.1,92.974,131.03,42.627
1336.7,160.1,91.974,131.03,42.627
1346.6,160.1,92.974,133.03,43.627
1356.4,161.1,92.974,132.03,44.627
1366.3,159.1,91.974,132.03,42.627
1376.2,158.1,92.974,132.03,44.627
1386.1,159.1,91.974,130.03,42.627
1396.0,156.1,90.974,129.03,42.627
1405.9,154.1,89.974,130.03,43.627
1415.8,154.1,88.974,129.03,42.627
1425.6,153.1,87.974,128.03,42.627
1435.5,152.1,87.974,127.03,41.627
1445.4,152.1,87.974,126.03,42.627
1455.3,151.1,87.974,124.03,41.627
1465.2,151.1,87.974,121.03,40.627
1475.1,147.1,84.974,120.03,40.627
1485.0,147.1,84.974,118.03,40.627
1494.8,144.1,83.974,117.03,39.627
1504.7,144.1,83.974,115.03,40.627
1514.6,140.1,81.974,112.03,38.627
1524.5,140.1,81.974,112.03,36.627
1534.4,139.1,81.974,109.03,35.627
1544.3,139.1,81.974,108.03,36.627
1554.2,137.1,80.974,106.03,35.627
1564.0,137.1,80.974,102.03,35.627
1573.9,134.1,79.974,103.03,35.627
1583.8,134.1,79.974,101.03,35.627
1593.7,131.1,78.974,100.03,34.627
1603.6,131.1,78.974,99.033,33.627
1613.5,131.1,78.974,97.033,34.627
1623.4,127.1,75.974,96.033,33.627
1633.2,126.1,75.974,95.033,32.627
1643.1,122.1,74.974,93.033,32.627
1653.0,122.1,72.974,90.033,32.627
1662.9,120.1,73.974,90.033,31.627
1672.8,118.1,71.974,86.033,30.627
1682.7,116.1,71.974,83.033,29.627
1692.6,114.1,70.974,82.033,30.627
1702.4,114.1,70.974,81.033,29.627
1712.3,113.1,69.974,79.033,28.627
1722.2,110.1,68.974,75.033,27.627
1732.1,107.1,66.974,72.033,26.627
1742.0,103.1,66.974,70.033,24.627
1751.9,103.1,65.974,68.033,24.627
1761.8,100.1,64.974,65.033,22.627
1771.6,98.096,63.974,64.033,22.627
1781.5,98.096,63.974,61.033,22.627
1791.4,96.096,62.974,60.033,21.627
1801.3,94.096,62.974,58.033,20.627
1811.2,94.096,61.974,55.033,22.627
1821.1,93.096,60.974,55.033,20.627
1831.0,91.096,60.974,51.033,20.627
1840.8,89.096,58.974,49.033,19.627
1850.7,88.096,59.974,47.033,18.627
1860.6,84.096,57.974,47.033,17.627
1870.5,83.096,58.974,46.033,19.627
1880.4,84.096,58.974,42.033,17.627
1890.3,83.096,60.974,40.033,16.627
1900.2,84.096,60.974,38.033,16.627
1910.0,81.096,58.974,36.033,16.627
1919.9,82.096,57.974,34.033,14.627
1929.8,83.096,59.974,31.033,14.627
1939.7,85.096,60.974,29.033,14.627
1949.6,87.096,62.974,29.033,14.627
1959.5,92.096,64.974,26.033,13.627
1969.4,97.096,65.974,26.033,13.627
1979.2,98.096,68.974,27.033,13.627
1989.1,103.1,67.974,27.033,13.627
1999.0,107.1,69.974,41.033,14.627
2008.9,110.1,71.974,41.033,14.627
2018.8,113.1,72.974,57.033,17.627
2028.7,117.1,73.974,57.033,17.627
2038.5,121.1,75.974,69.033,20.627
2048.4,125.1,76.974,69.033,20.627
2058.3,125.1,76.974,81.033,22.627
2068.2,130.1,80.974,81.033,22.627
2078.1,132.1,80.974,88.033,26.627
2088.0,133.1,80.974,88.033,26.627
2097.9,135.1,80.974,96.033,28.627
2107.8,136.1,80.974,96.033,28.627
2117.6,136.1,79.974,98.033,28.627
2127.5,137.1,80.974,98.033,28.627
2137.4,140.1,81.974,101.03,29.627
2147.3,137.1,80.974,101.03,29.627
2157.2,138.1,81.974,102.03,28.627
2167.1,138.1,82.974,100.03,28.627
2176.9,139.1,81.974,101.03,29.627
2186.8,138.1,81.974,99.033,29.627
2196.7,140.1,80.974,99.033,28.627
2206.6,139.1,80.974,98.033,29.627
2216.5,140.1,80.974,97.033,29.627
2226.4,141.1,80.974,96.033,29.627
2236.3,142.1,81.974,95.033,29.627
2246.2,143.1,82.974,94.033,28.627
2256.0,143.1,82.974,95.033,29.627
2265.9,142.1,82.974,94.033,29.627
2275.8,140.1,80.974,93.033,29.627
2285.7,140.1,82.974,94.033,27.627
2295.6,140.1,82.974,94.033,28.627
2305.5,141.1,80.974,93.033,28.627
2315.3,141.1,80.974,91.033,27.627
2325.2,139.1,78.974,91.033,28.627
2335.1,139.1,78.974,91.033,27.627
2345.0,137.1,79.974,91.033,28.627
2354.9,137.1,79.974,91.033,27.627
2364.8,134.1,78.974,92.033,29.627
2374.7,134.1,78.974,91.033,28.627
2384.5,133.1,75.974,88.033,27.627
2394.4,133.1,75.974,85.033,25.627
2404.3,131.1,75.974,86.033,25.627
2414.2,131.1,75.974,83.033,25.627
2424.1,128.1,74.974,83.033,24.627
2434.0,128.1,74.974,81.033,23.627
2443.9,128.1,75.974,76.033,22.627
2453.7,128.1,75.974,77.033,22.627
2463.6,127.1,73.974,74.033,22.627
2473.5,126.1,72.974,72.033,21.627
2483.4,123.1,71.974,68.033,20.627
2493.3,122.1,72.974,68.033,20.627
2503.2,122.1,72.974,67.033,22.627
2513.1,119.1,70.974,67.033,21.627
2522.9,117.1,70.974,64.033,20.627
2532.8,117.1,68.974,61.033,19.627
2542.7,115.1,66.974,57.033,18.627
2552.6,112.1,67.974,56.033,17.627
2562.5,111.1,66.974,54.033,17.627
2572.4,109.1,65.974,54.033,17.627
2582.3,108.1,64.974,54.033,17.627
2592.1,106.1,64.974,50.033,16.627
2602.0,106.1,62.974,48.033,16.627
2611.9,103.1,62.974,48.033,16.627
2621.8,99.096,61.974,46.033,15.627
2631.7,98.096,60.974,42.033,14.627
2641.6,95.096,58.974,41.033,14.627
2651.5,95.096,58.974,42.033,14.627
2661.3,92.096,58.974,41.033,14.627
2671.2,90.096,56.974,38.033,12.627
2681.1,91.096,57.974,36.033,11.627
2691.0,89.096,57.974,34.033,12.627
2700.9,87.096,56.974,33.033,12.627
2710.8,85.096,55.974,32.033,11.627
2720.7,83.096,54.974,31.033,11.627
2730.5,82.096,52.974,28.033,10.627
2740.4,80.096,52.974,25.033,10.627
2750.3,77.096,50.974,22.033,7.6273
2760.2,77.096,51.974,22.033,9.6273
2770.1,76.096,50.974,21.033,9.6273
2780.0,73.096,50.974,19.033,7.6273
2789.9,71.096,48.974,17.033,7.6273
2799.7,69.096,48.974,12.033,6.6273
2809.6,70.096,48.974,10.033,6.6273
2819.5,68.096,47.974,8.0332,5.6273
2829.4,65.096,45.974,5.0332,3.6273
2839.3,62.096,44.974,5.0332,4.6273
2849.2,62.096,42.974,4.0332,4.6273
2859.1,60.096,42.974,2.0332,4.6273
2868.9,59.096,42.974,1.0332,3.6273
2878.8,57.096,44.974,-0.96678,2.6273
2888.7,60.096,45.974,-4.9668,2.6273
2898.6,56.096,43.974,-5.9668,1.6273
2908.5,58.096,45.974,-6.9668,0.6273
2918.4,60.096,46.974,-11.967,1.6273
2928.3,62.096,48.974,-11.967,0.6273
2938.1,64.096,49.974,-12.967,0.6273
2948.0,68.096,50.974,-11.967,0.6273
2957.9,72.096,52.974,-11.967,-0.3727
2967.8,76.096,53.974,-11.967,0.6273
2977.7,77.096,53.974,-7.9668,0.6273
2987.6,82.096,55.974,-1.9668,1.6273
2997.5,84.096,55.974,-1.9668,1.6273
3007.3,87.096,56.974,17.033,4.6273
3017.2,89.096,56.974,17.033,4.6273
3027.1,93.096,57.974,28.033,7.6273
3037.0,91.096,58.974,28.033,7.6273
3046.9,94.096,59.974,37.033,8.6273
3056.8,96.096,59.974,37.033,8.6273
3066.7,98.096,59.974,46.033,11.627
3076.5,96.096,58.974,46.033,11.627
3086.4,97.096,58.974,48.033,12.627
3096.3,97.096,56.974,48.033,12.627
3106.2,96.096,57.974,53.033,14.627
3116.1,95.096,56.974,53.033,14.627
3126.0,95.096,55.974,54.033,15.627
3135.9,95.096,56.974,54.033,15.627
3145.7,95.096,56.974,51.033,12.627
3155.6,96.096,55.974,51.033,12.627
3165.5,96.096,55.974,47.033,12.627
3175.4,96.096,56.974,47.033,12.627
3185.3,96.096,56.974,44.033,13.627
3195.2,97.096,54.974,42.033,13.627
3205.1,97.096,54.974,40.033,12.627
3214.9,96.096,54.974,37.033,11.627
3224.8,96.096,54.974,37.033,12.627
3234.7,96.096,55.974,40.033,12.627
3244.6,96.096,55.974,39.033,12.627
3254.5,95.096,54.974,38.033,11.627
3264.4,95.096,54.974,37.033,11.627
3274.3,92.096,52.974,36.033,10.627
3284.1,92.096,52.974,37.033,12.627
3294.0,93.096,52.974,35.033,12.627
3303.9,93.096,52.974,37.033,12.627
3313.8,91.096,50.974,38.033,11.627
3323.7,91.096,50.974,37.033,10.627
3333.6,89.096,50.974,38.033,11.627
3343.5,87.096,49.974,34.033,10.627
3353.3,86.096,47.974,34.033,11.627
3363.2,85.096,47.974,35.033,11.627
3373.1,85.096,45.974,34.033,11.627
3383.0,83.096,46.974,31.033,10.627
3392.9,82.096,44.974,31.033,9.6273
3402.8,81.096,44.974,29.033,9.6273
3412.7,79.096,44.974,28.033,9.6273
3422.5,79.096,43.974,27.033,8.6273
3432.4,78.096,43.974,26.033,8.6273
3442.3,75.096,42.974,25.033,9.6273
3452.2,74.096,41.974,21.033,7.6273
3462.1,70.096,40.974,20.033,7.6273
3472.0,69.096,39.974,20.033,7.6273
3481.9,70.096,38.974,19.033,6.6273
3491.7,67.096,37.974,18.033,6.6273
3501.6,63.096,34.974,16.033,5.6273
3511.5,63.096,34.974,12.033,5.6273
3521.4,62.096,34.974,11.033,3.6273
3531.3,60.096,33.974,11.033,5.6273
3541.2,59.096,31.974,10.033,4.6273
3551.1,57.096,32.974,8.0332,3.6273
3560.9,54.096,29.974,4.0332,3.6273
3570.8,54.096,31.974,6.0332,2.6273
3580.7,51.096,28.974,4.0332,3.6273
3590.6,50.096,29.974,1.0332,3.6273
3600.5,47.096,28.974,2.0332,2.6273
3610.4,46.096,26.974,0.033217,2.6273
3620.3,45.096,25.974,-2.9668,2.6273
3630.1,44.096,25.974,-4.9668,0.6273
3640.0,41.096,22.974,-5.9668,1.6273
3649.9,40.096,23.974,-7.9668,0.6273
3659.8,37.096,22.974,-7.9668,-0.3727
3669.7,35.096,20.974,-8.9668,-0.3727
3679.6,34.096,21.974,-8.9668,-1.3727
3689.5,31.096,21.974,-10.967,-1.3727
3699.3,31.096,18.974,-12.967,-2.3727
3709.2,29.096,17.974,-15.967,-3.3727
3719.1,25.096,16.974,-18.967,-4.3727
3729.0,25.096,15.974,-18.967,-3.3727
3738.9,23.096,14.974,-17.967,-4.3727
3748.8,21.096,15.974,-20.967,-3.3727
3758.7,18.096,13.974,-19.967,-3.3727
3768.5,18.096,12.974,-24.967,-4.3727
3778.4,12.096,11.974,-24.967,-3.3727
3788.3,10.096,8.9742,-25.967,-5.3727
3798.2,10.096,8.9742,-29.967,-4.3727
3808.1,7.096,7.9742,-29.967,-5.3727
3818.0,7.096,8.9742,-30.967,-5.3727
3827.9,8.096,10.974,-34.967,-7.3727
3837.7,9.096,13.974,-34.967,-6.3727
3847.6,7.096,11.974,-36.967,-7.3727
3857.5,9.096,13.974,-37.967,-6.3727
3867.4,10.096,14.974,-42.967,-8.3727
3877.3,15.096,15.974,-42.967,-8.3727
3887.2,22.096,19.974,-45.967,-11.373
3897.1,26.096,20.974,-44.967,-10.373
3906.9,33.096,23.974,-44.967,-10.373
3916.8,37.096,24.974,-40.967,-11.373
3926.7,39.096,24.974,-36.967,-10.373
3936.6,43.096,24.974,-26.967,-7.3727
3946.5,46.096,25.974,-14.967,-4.3727
3956.4,51.096,27.974,-3.9668,-3.3727
3966.3,51.096,28.974,5.0332,-1.3727
3976.1,54.096,29.974,15.033,3.6273
3986.0,57.096,30.974,23.033,4.6273
3995.9,59.096,30.974,32.033,5.6273
4005.8,62.096,30.974,36.033,8.6273
4015.7,62.096,30.974,41.033,9.6273
4025.6,64.096,30.974,45.033,11.627
4035.5,64.096,30.974,50.033,12.627
4045.3,65.096,29.974,52.033,13.627
4055.2,65.096,29.974,53.033,13.627
4065.1,67.096,30.974,53.033,13.627
4075.0,67.096,30.974,54.033,14.627
4084.9,67.096,29.974,54.033,14.627
4094.8,67.096,29.974,56.033,15.627
4104.7,69.096,32.974,56.033,15.627
4114.5,69.096,32.974,53.033,15.627
4124.4,74.096,33.974,53.033,15.627
4134.3,74.096,33.974,53.033,16.627
4144.2,73.096,33.974,53.033,16.627
4154.1,73.096,33.974,51.033,15.627
4164.0,73.096,33.974,51.033,15.627
4173.9,73.096,33.974,49.033,16.627
4183.7,74.096,34.974,49.033,16.627
4193.6,73.096,32.974,48.033,15.627
4203.5,75.096,33.974,48.033,15.627
4213.4,74.096,31.974,51.033,16.627
4223.3,71.096,31.974,51.033,16.627
4233.2,71.096,30.974,53.033,17.627
4243.1,71.096,28.974,53.033,17.627
4252.9,69.096,28.974,51.033,18.627
4262.8,69.096,27.974,51.033,18.627
4272.7,66.096,27.974,54.033,16.627
4282.6,67.096,26.974,54.033,16.627
4292.5,63.096,26.974,54.033,16.627
4302.4,62.096,26.974,54.033,16.627
4312.3,63.096,23.974,50.033,16.627
4322.1,61.096,23.974,50.033,15.627
4332.0,59.096,21.974,49.033,14.627
4341.9,59.096,20.974,50.033,13.627
4351.8,56.096,21.974,45.033,14.627
4361.7,52.096,20.974,45.033,13.627
4371.6,56.096,19.974,43.033,12.627
4381.5,54.096,19.974,44.033,12.627
4391.3,49.096,17.974,40.033,13.627
4401.2,49.096,17.974,39.033,12.627
4411.1,48.096,16.974,40.033,12.627
4421.0,45.096,15.974,35.033,10.627
4430.9,46.096,15.974,35.033,9.6273
4440.8,44.096,15.974,32.033,10.627
4450.7,42.096,14.974,31.033,10.627
4460.5,42.096,13.974,30.033,10.627
4470.4,38.096,12.974,27.033,9.6273
4480.3,37.096,12.974,26.033,7.6273
4490.2,36.096,10.974,26.033,7.6273
4500.1,33.096,10.974,24.033,7.6273
4510.0,32.096,8.9742,23.033,7.6273
4519.9,29.096,7.9742,22.033,6.6273
4529.7,28.096,6.9742,20.033,7.6273
4539.6,27.096,8.9742,21.033,6.6273
4549.5,26.096,6.9742,16.033,5.6273
4559.4,24.096,5.9742,15.033,5.6273
4569.3,22.096,3.9742,13.033,3.6273
4579.2,19.096,2.9742,10.033,3.6273
4589.0,17.096,2.9742,9.0332,2.6273
4598.9,15.096,1.9742,10.033,3.6273
4608.8,14.096,1.9742,10.033,3.6273
4618.7,15.096,-1.0258,7.0332,1.6273
4628.6,11.096,-0.025835,5.0332,1.6273
4638.5,11.096,-1.0258,5.0332,2.6273
4648.4,8.096,-1.0258,4.0332,2.6273
4658.3,9.096,-2.0258,2.0332,2.6273
4668.1,5.096,-1.0258,0.033217,0.6273
4678.0,7.096,-3.0258,0.033217,1.6273
4687.9,3.096,-4.0258,-2.9668,1.6273
4697.8,3.096,-3.0258,-1.9668,1.6273
4707.7,0.09596,-5.0258,-4.9668,0.6273
4717.6,-0.90404,-6.0258,-4.9668,1.6273
4727.4,-1.904,-6.0258,-5.9668,-0.3727
4737.3,-5.904,-6.0258,-8.9668,-0.3727
4747.2,-6.904,-7.0258,-12.967,0.6273
4757.1,-5.904,-8.0258,-12.967,-1.3727
4767.0,-7.904,-9.0258,-14.967,-1.3727
4776.9,-9.904,-9.0258,-14.967,-0.3727
4786.8,-8.904,-8.0258,-17.967,-2.3727
4796.7,-5.904,-6.0258,-16.967,-1.3727
4806.5,-9.904,-6.0258,-20.967,-3.3727
4816.4,-9.904,-6.0258,-21.967,-4.3727
4826.3,-5.904,-5.0258,-24.967,-3.3727
4836.2,-0.90404,-1.0258,-27.967,-4.3727
4846.1,4.096,0.97416,-28.967,-6.3727
4856.0,9.096,1.9742,-29.967,-5.3727
4865.8,14.096,4.9742,-30.967,-7.3727
4875.7,19.096,6.9742,-28.967,-6.3727
4885.6,19.096,6.9742,-27.967,-6.3727
4895.5,31.096,11.974,-19.967,-5.3727
4905.4,31.096,11.974,-12.967,-3.3727
4915.3,34.096,10.974,-1.9668,-0.3727
4925.2,34.096,10.974,6.0332,2.6273
4935.0,39.096,12.974,16.033,2.6273
4944.9,39.096,12.974,21.033,5.6273
4954.8,47.096,15.974,27.033,5.6273
4964.7,47.096,15.974,33.033,7.6273
4974.6,52.096,18.974,35.033,9.6273
4984.5,52.096,18.974,40.033,10.627
4994.4,55.096,19.974,44.033,12.627
5004.2,55.096,19.974,46.033,11.627
5014.1,59.096,20.974,48.033,13.627
5024.0,59.096,20.974,50.033,14.627
5033.9,60.096,20.974,55.033,15.627
5043.8,60.096,20.974,55.033,15.627
5053.7,60.096,20.974,54.033,16.627
5063.6,61.096,22.974,54.033,14.627
5073.4,61.096,21.974,51.033,14.627
5083.3,64.096,24.974,49.033,14.627
5093.2,64.096,23.974,47.033,14.627
5103.1,66.096,25.974,48.033,16.627
5113.0,67.096,25.974,47.033,14.627
5122.9,69.096,26.974,48.033,15.627
5132.8,69.096,26.974,48.033,14.627
5142.6,73.096,28.974,47.033,15.627
5152.5,71.096,26.974,47.033,15.627
5162.4,74.096,29.974,45.033,13.627
5172.3,73.096,28.974,45.033,13.627
5182.2,74.096,29.974,46.033,13.627
5192.1,74.096,29.974,46.033,13.627
5202.0,75.096,29.974,46.033,14.627
5211.8,76.096,29.974,46.033,14.627
5221.7,75.096,28.974,47.033,13.627
5231.6,73.096,28.974,47.033,13.627
5241.5,74.096,28.974,46.033,13.627
5251.4,74.096,27.974,46.033,13.627
5261.3,74.096,29.974,47.033,14.627
5271.2,76.096,30.974,47.033,14.627
5281.0,75.096,29.974,46.033,15.627
5290.9,75.096,29.974,46.033,15.627
5300.8,75.096,29.974,44.033,13.627
5310.7,73.096,29.974,44.033,13.627
5320.6,74.096,30.974,42.033,12.627
5330.5,74.096,29.974,42.033,12.627
5340.4,71.096,29.974,41.033,13.627
5350.2,73.096,29.974,41.033,13.627
5360.1,71.096,29.974,40.033,13.627
5370.0,71.096,29.974,38.033,14.627
5379.9,70.096,30.974,39.033,15.627
5389.8,69.096,29.974,39.033,13.627
5399.7,71.096,29.974,38.033,13.627
5409.6,67.096,28.974,36.033,13.627
5419.4,70.096,29.974,35.033,14.627
5429.3,67.096,29.974,34.033,14.627
5439.2,67.096,28.974,33.033,12.627
5449.1,66.096,27.974,32.033,12.627
5459.0,65.096,28.974,30.033,12.627
5468.9,63.096,28.974,26.033,11.627
5478.8,63.096,26.974,27.033,12.627
5488.6,59.096,25.974,27.033,11.627
5498.5,59.096,25.974,26.033,12.627
5508.4,58.096,25.974,24.033,11.627
5518.3,58.096,24.974,23.033,10.627
5528.2,54.096,24.974,21.033,10.627
5538.1,53.096,24.974,20.033,11.627
5548.0,51.096,23.974,20.033,10.627
5557.8,50.096,22.974,20.033,10.627
5567.7,48.096,22.974,17.033,10.627
5577.6,47.096,21.974,17.033,10.627
5587.5,46.096,21.974,15.033,10.627
5597.4,45.096,20.974,15.033,12.627
5607.3,44.096,19.974,12.033,9.6273
5617.2,45.096,19.974,11.033,8.6273
5627.0,42.096,19.974,12.033,8.6273
5636.9,38.096,17.974,10.033,8.6273
5646.8,36.096,17.974,10.033,9.6273
5656.7,38.096,17.974,6.0332,8.6273
5666.6,36.096,16.974,4.0332,8.6273
5676.5,36.096,17.974,4.0332,7.6273
5686.4,34.096,17.974,3.0332,6.6273
5696.2,36.096,17.974,3.0332,5.6273
5706.1,36.096,19.974,0.033217,5.6273
5716.0,35.096,17.974,-3.9668,5.6273
5725.9,35.096,19.974,-3.9668,7.6273
5735.8,34.096,20.974,-5.9668,4.6273
5745.7,39.096,23.974,-7.9668,5.6273
5755.6,39.096,23.974,-7.9668,5.6273
5765.4,47.096,26.974,-8.9668,5.6273
5775.3,47.096,26.974,-9.9668,4.6273
5785.2,56.096,31.974,-7.9668,5.6273
5795.1,56.096,31.974,-4.9668,4.6273
5805.0,63.096,31.974,2.0332,5.6273
5814.9,63.096,31.974,8.0332,7.6273
5824.8,72.096,35.974,16.033,9.6273
5834.6,72.096,35.974,26.033,11.627
5844.5,76.096,36.974,34.033,12.627
5854.4,76.096,36.974,41.033,15.627
5864.3,83.096,41.974,46.033,17.627
5874.2,83.096,41.974,54.033,18.627
5884.1,88.096,42.974,59.033,19.627
5894.0,88.096,42.974,62.033,21.627
5903.8,90.096,41.974,65.033,21.627
5913.7,90.096,41.974,68.033,23.627
5923.6,90.096,42.974,70.033,23.627
5933.5,91.096,43.974,70.033,24.627
5943.4,94.096,44.974,71.033,25.627
5953.3,93.096,44.974,73.033,26.627
5963.2,92.096,43.974,74.033,25.627
5973.0,97.096,46.974,72.033,25.627
5982.9,95.096,45.974,72.033,27.627
5992.8,97.096,47.974,70.033,27.627
6002.7,96.096,47.974,66.033,24.627
6012.6,100.1,49.974,65.033,25.627
6022.5,99.096,48.974,64.033,24.627
6032.4,100.1,48.974,65.033,25.627
6042.2,103.1,51.974,64.033,26.627
6052.1,104.1,50.974,63.033,26.627
6062.0,105.1,52.974,63.033,25.627
6071.9,108.1,54.974,63.033,25.627
6081.8,106.1,53.974,63.033,25.627
6091.7,106.1,53.974,63.033,24.627
6101.6,105.1,52.974,62.033,24.627
6111.4,106.1,53.974,63.033,25.627
6121.3,108.1,54.974,61.033,26.627
6131.2,108.1,54.974,62.033,25.627
6141.1,108.1,54.974,62.033,25.627
6151.0,107.1,53.974,61.033,24.627
6160.9,107.1,53.974,61.033,23.627
6170.8,106.1,53.974,62.033,24.627
6180.6,105.1,53.974,61.033,24.627
6190.5,105.1,53.974,60.033,24.627
6200.4,103.1,53.974,59.033,26.627
6210.3,104.1,52.974,57.033,23.627
6220.2,105.1,53.974,56.033,25.627
6230.1,103.1,53.974,55.033,23.627
6240.0,104.1,53.974,54.033,23.627
6249.8,104.1,52.974,50.033,21.627
6259.7,100.1,52.974,49.033,22.627
6269.6,100.1,50.974,49.033,22.627
6279.5,98.096,50.974,49.033,22.627
6289.4,95.096,49.974,46.033,20.627
6299.3,97.096,50.974,46.033,20.627
6309.2,96.096,49.974,40.033,20.627
6319.0,93.096,48.974,40.033,20.627
6328.9,93.096,48.974,38.033,17.627
6338.8,94.096,49.974,38.033,17.627
6348.7,92.096,49.974,37.033,18.627
6358.6,88.096,46.974,37.033,18.627
6368.5,88.096,46.974,33.033,17.627
6378.4,85.096,47.974,33.033,17.627
6388.2,84.096,45.974,28.033,15.627
6398.1,84.096,44.974,28.033,15.627
6408.0,83.096,45.974,26.033,14.627
6417.9,80.096,44.974,26.033,14.627
6427.8,79.096,43.974,21.033,12.627
6437.7,78.096,44.974,21.033,12.627
6447.6,77.096,43.974,18.033,12.627
6457.4,76.096,42.974,18.033,12.627
6467.3,75.096,41.974,14.033,12.627
6477.2,73.096,39.974,14.033,12.627
6487.1,70.096,39.974,11.033,10.627
6497.0,69.096,39.974,11.033,10.627
6506.9,68.096,39.974,7.0332,9.6273
6516.8,66.096,38.974,7.0332,9.6273
6526.6,66.096,37.974,5.0332,9.6273
6536.5,63.096,36.974,4.0332,7.6273
6546.4,59.096,36.974,1.0332,7.6273
6556.3,57.096,33.974,0.033217,7.6273
6566.2,56.096,33.974,-1.9668,6.6273
6576.1,55.096,34.974,-1.9668,6.6273
6586.0,55.096,32.974,-2.9668,6.6273
6595.8,54.096,34.974,-4.9668,4.6273
6605.7,52.096,34.974,-7.9668,5.6273
6615.6,55.096,35.974,-9.9668,3.6273
6625.5,55.096,35.974,-12.967,3.6273
6635.4,52.096,35.974,-15.967,2.6273
6645.3,52.096,35.974,-16.967,3.6273
6655.2,56.096,38.974,-18.967,2.6273
6665.0,56.096,38.974,-20.967,1.6273
6674.9,63.096,40.974,-20.967,1.6273
6684.8,63.096,40.974,-22.967,0.6273
6694.7,70.096,45.974,-20.967,0.6273
6704.6,70.096,45.974,-20.967,-0.3727
6714.5,79.096,47.974,-17.967,0.6273
6724.4,79.096,47.974,-10.967,2.6273
6734.2,85.096,50.974,-2.9668,4.6273
6744.1,85.096,50.974,7.0332,6.6273
6754.0,94.096,52.974,13.033,8.6273
6763.9,94.096,52.974,22.033,10.627
6773.8,97.096,55.974,29.033,12.627
6783.7,97.096,55.974,36.033,13.627
6793.6,102.1,56.974,40.033,14.627
6803.4,104.1,57.974,46.033,14.627
6813.3,104.1,57.974,49.033,17.627
6823.2,105.1,57.974,53.033,18.627
6833.1,105.1,57.974,54.033,18.627
6843.0,108.1,57.974,57.033,19.627
6852.9,108.1,58.974,59.033,22.627
6862.8,111.1,60.974,62.033,23.627
6872.6,109.1,59.974,60.033,22.627
6882.5,109.1,59.974,62.033,23.627
6892.4,110.1,59.974,63.033,24.627
6902.3,111.1,60.974,61.033,23.627
6912.2,110.1,60.974,61.033,23.627
6922.1,113.1,61.974,59.033,24.627
6932.0,112.1,61.974,58.033,22.627
6941.8,114.1,61.974,57.033,23.627
6951.7,116.1,62.974,54.033,22.627
6961.6,114.1,63.974,55.033,24.627
6971.5,113.1,60.974,53.033,23.627
6981.4,115.1,62.974,54.033,24.627
6991.3,114.1,62.974,53.033,23.627
7001.2,114.1,63.974,55.033,24.627
7011.0,116.1,63.974,53.033,23.627
7020.9,115.1,62.974,54.033,24.627
7030.8,115.1,62.974,51.033,21.627
7040.7,114.1,62.974,53.033,24.627
7050.6,114.1,60.974,53.033,24.627
7060.5,114.1,62.974,55.033,24.627
7070.4,114.1,61.974,55.033,23.627
7080.2,114.1,62.974,55.033,23.627
7090.1,113.1,62.974,54.033,22.627
7100.0,113.1,61.974,50.033,21.627
7109.9,111.1,60.974,49.033,21.627
7119.8,109.1,60.974,50.033,22.627
7129.7,110.1,59.974,49.033,21.627
7139.6,107.1,58.974,48.033,21.627
7149.4,106.1,58.974,47.033,20.627
7159.3,105.1,58.974,47.033,21.627
7169.2,107.1,58.974,47.033,22.627
7179.1,104.1,56.974,42.033,20.627
7189.0,104.1,56.974,40.033,19.627
7198.9,102.1,56.974,38.033,18.627
7208.8,100.1,56.974,37.033,19.627
7218.6,99.096,55.974,35.033,17.627
7228.5,99.096,54.974,33.033,18.627
7238.4,95.096,53.974,31.033,16.627
7248.3,95.096,52.974,31.033,15.627
7258.2,93.096,52.974,29.033,15.627
7268.1,92.096,52.974,26.033,16.627
7277.9,90.096,51.974,26.033,16.627
7287.8,89.096,51.974,25.033,14.627
7297.7,88.096,51.974,23.033,14.627
7307.6,86.096,50.974,21.033,13.627
7317.5,85.096,49.974,18.033,12.627
7327.4,82.096,48.974,18.033,12.627
7337.3,82.096,48.974,14.033,11.627
7347.2,79.096,46.974,14.033,11.627
7357.0,78.096,45.974,10.033,10.627
7366.9,76.096,43.974,10.033,10.627
7376.8,74.096,43.974,7.0332,8.6273
7386.7,72.096,43.974,7.0332,8.6273
7396.6,70.096,42.974,2.0332,8.6273
7406.5,71.096,42.974,2.0332,8.6273
7416.3,70.096,43.974,1.0332,6.6273
7426.2,69.096,42.974,1.0332,6.6273
7436.1,68.096,43.974,-5.9668,5.6273
7446.0,66.096,41.974,-5.9668,5.6273
7455.9,65.096,40.974,-9.9668,5.6273
7465.8,62.096,38.974,-9.9668,5.6273
7475.7,58.096,37.974,-12.967,2.6273
7485.5,58.096,37.974,-12.967,2.6273
7495.4,58.096,37.974,-15.967,1.6273
7505.3,54.096,36.974,-15.967,1.6273
7515.2,54.096,36.974,-17.967,1.6273
7525.1,54.096,36.974,-17.967,1.6273
7535.0,54.096,36.974,-24.967,0.6273
7544.9,51.096,37.974,-24.967,0.6273
7554.7,51.096,37.974,-27.967,-0.3727
7564.6,51.096,38.974,-27.967,-0.3727
7574.5,51.096,38.974,-29.967,-1.3727
7584.4,58.096,41.974,-29.967,-0.3727
7594.3,58.096,41.974,-32.967,-1.3727
7604.2,66.096,45.974,-35.967,-3.3727
7614.1,66.096,45.974,-35.967,-2.3727
7623.9,73.096,48.974,-33.967,-3.3727
7633.8,73.096,48.974,-30.967,-2.3727
7643.7,78.096,51.974,-26.967,-1.3727
7653.6,78.096,51.974,-18.967,0.6273
7663.5,84.096,51.974,-9.9668,0.6273
7673.4,85.096,52.974,0.033217,4.6273
7683.3,87.096,52.974,8.0332,4.6273
7693.1,89.096,54.974,13.033,5.6273
7703.0,92.096,55.974,18.033,6.6273
7712.9,93.096,56.974,24.033,8.6273
7722.8,98.096,56.974,27.033,9.6273
7732.7,95.096,56.974,31.033,10.627
7742.6,99.096,57.974,34.033,11.627
7752.5,99.096,56.974,36.033,13.627
7762.3,100.1,55.974,42.033,14.627
7772.2,101.1,59.974,41.033,16.627
7782.1,101.1,57.974,40.033,15.627
7792.0,100.1,56.974,43.033,16.627
7801.9,100.1,56.974,44.033,15.627
7811.8,102.1,58.974,45.033,15.627
7821.7,101.1,57.974,42.033,15.627
7831.5,103.1,58.974,42.033,14.627
7841.4,103.1,59.974,43.033,15.627
7851.3,105.1,61.974,39.033,15.627
7861.2,108.1,61.974,40.033,15.627
7871.1,107.1,61.974,38.033,16.627
7881.0,109.1,60.974,38.033,17.627
7890.9,106.1,60.974,38.033,14.627
7900.7,107.1,61.974,37.033,17.627
7910.6,106.1,61.974,38.033,17.627
7920.5,107.1,60.974,39.033,17.627
7930.4,107.1,60.974,38.033,16.627
7940.3,107.1,60.974,37.033,16.627
7950.2,106.1,59.974,37.033,16.627
7960.1,108.1,61.974,39.033,16.627
7969.9,105.1,59.974,39.033,16.627
7979.8,105.1,61.974,40.033,18.627
7989.7,104.1,59.974,37.033,17.627
7999.6,103.1,59.974,38.033,16.627
8009.5,99.096,60.974,37.033,17.627
8019.4,102.1,59.974,35.033,15.627
8029.3,101.1,58.974,34.033,16.627
8039.1,99.096,59.974,35.033,16.627
8049.0,97.096,57.974,34.033,16.627
8058.9,98.096,57.974,32.033,14.627
8068.8,98.096,57.974,31.033,15.627
8078.7,95.096,56.974,29.033,13.627
8088.6,95.096,57.974,28.033,14.627
8098.5,93.096,55.974,27.033,14.627
8108.3,91.096,55.974,28.033,14.627
8118.2,90.096,54.974,24.033,14.627
8128.1,90.096,53.974,23.033,13.627
8138.0,88.096,53.974,23.033,12.627
8147.9,88.096,54.974,21.033,11.627
8157.8,87.096,52.974,19.033,12.627
8167.7,86.096,52.974,15.033,10.627
8177.5,85.096,52.974,13.033,10.627
8187.4,83.096,50.974,12.033,10.627
8197.3,81.096,49.974,12.033,10.627
8207.2,79.096,49.974,10.033,10.627
8217.1,78.096,49.974,11.033,10.627
8227.0,77.096,48.974,7.0332,8.6273
8236.9,75.096,48.974,7.0332,10.627
8246.7,74.096,47.974,5.0332,8.6273
8256.6,73.096,47.974,2.0332,8.6273
8266.5,73.096,47.974,1.0332,6.6273
8276.4,73.096,46.974,0.033217,6.6273
8286.3,71.096,45.974,-0.96678,5.6273
8296.2,69.096,45.974,-2.9668,5.6273
8306.1,66.096,45.974,-5.9668,3.6273
8315.9,64.096,41.974,-7.9668,3.6273
8325.8,63.096,42.974,-8.9668,2.6273
8335.7,63.096,41.974,-10.967,3.6273
8345.6,59.096,41.974,-13.967,2.6273
8355.5,58.096,41.974,-12.967,3.6273
8365.4,58.096,41.974,-15.967,1.6273
8375.3,56.096,39.974,-16.967,0.6273
8385.1,56.096,39.974,-21.967,1.6273
8395.0,53.096,38.974,-22.967,0.6273
8404.9,53.096,38.974,-24.967,-1.3727
8414.8,48.096,36.974,-24.967,-1.3727
8424.7,48.096,36.974,-25.967,-2.3727
8434.6,45.096,34.974,-25.967,-2.3727
8444.5,45.096,34.974,-31.967,-2.3727
8454.3,43.096,36.974,-31.967,-2.3727
8464.2,43.096,36.974,-36.967,-5.3727
8474.1,43.096,36.974,-36.967,-5.3727
8484.0,43.096,36.974,-42.967,-6.3727
8493.9,41.096,35.974,-42.967,-6.3727
8503.8,41.096,35.974,-47.967,-6.3727
8513.7,46.096,38.974,-47.967,-6.3727
8523.5,46.096,38.974,-52.967,-9.3727
8533.4,49.096,40.974,-52.967,-9.3727
8543.3,53.096,40.974,-52.967,-10.373
8553.2,55.096,42.974,-52.967,-10.373
8563.1,58.096,43.974,-52.967,-11.373
8573.0,61.096,43.974,-52.967,-11.373
8582.9,63.096,43.974,-38.967,-8.3727
8592.7,66.096,43.974,-38.967,-8.3727
8602.6,66.096,45.974,-25.967,-7.3727
8612.5,72.096,46.974,-25.967,-7.3727
8622.4,73.096,46.974,-18.967,-5.3727
8632.3,74.096,48.974,-11.967,-4.3727
8642.2,77.096,48.974,-2.9668,-2.3727
8652.1,79.096,48.974,-2.9668,-2.3727
8661.9,81.096,49.974,0.033217,-1.3727
8671.8,78.096,47.974,3.0332,-1.3727
8681.7,78.096,45.974,8.0332,0.6273
8691.6,77.096,45.974,8.0332,0.6273
8701.5,78.096,45.974,10.033,0.6273
8711.4,77.096,45.974,11.033,2.6273
8721.3,76.096,43.974,13.033,2.6273
8731.1,75.096,43.974,15.033,2.6273
8741.0,76.096,42.974,12.033,3.6273
8750.9,72.096,42.974,11.033,2.6273
8760.8,74.096,41.974,9.0332,2.6273
8770.7,72.096,41.974,7.0332,2.6273
8780.6,75.096,41.974,3.0332,0.6273
8790.5,75.096,41.974,3.0332,1.6273
8800.3,73.096,41.974,3.0332,1.6273
8810.2,74.096,41.974,2.0332,1.6273
8820.1,74.096,39.974,0.033217,1.6273
8830.0,73.096,40.974,-3.9668,0.6273
8839.9,72.096,39.974,-2.9668,0.6273
8849.8,72.096,39.974,-2.9668,0.6273
8859.7,73.096,38.974,-1.9668,1.6273
8869.5,72.096,39.974,-2.9668,0.6273
8879.4,72.096,38.974,-4.9668,1.6273
8889.3,72.096,37.974,-2.9668,0.6273
8899.2,70.096,38.974,-4.9668,-0.3727
8909.1,70.096,36.974,-3.9668,0.6273
8919.0,67.096,36.974,-3.9668,-1.3727
8928.9,68.096,34.974,-4.9668,-0.3727
8938.7,65.096,34.974,-2.9668,-0.3727
8948.6,65.096,34.974,-3.9668,-0.3727
8958.5,63.096,33.974,-2.9668,-0.3727
8968.4,62.096,31.974,-5.9668,-0.3727
8978.3,61.096,32.974,-5.9668,-0.3727
8988.2,59.096,31.974,-4.9668,1.6273
8998.1,60.096,30.974,-6.9668,-0.3727
9007.9,59.096,30.974,-6.9668,0.6273
9017.8,55.096,29.974,-8.9668,-0.3727
9027.7,56.096,30.974,-10.967,-0.3727
9037.6,55.096,29.974,-11.967,-1.3727
9047.5,53.096,28.974,-12.967,-1.3727
9057.4,52.096,26.974,-14.967,-1.3727
9067.3,51.096,25.974,-16.967,-3.3727
9077.1,49.096,26.974,-18.967,-3.3727
9087.0,47.096,24.974,-18.967,-3.3727
9096.9,46.096,24.974,-21.967,-5.3727
9106.8,47.096,24.974,-23.967,-5.3727
9116.7,44.096,25.974,-23.967,-6.3727
9126.6,42.096,21.974,-24.967,-6.3727
9136.5,40.096,22.974,-25.967,-5.3727
9146.3,40.096,22.974,-29.967,-6.3727
9156.2,39.096,21.974,-30.967,-6.3727
9166.1,37.096,20.974,-33.967,-7.3727
9176.0,36.096,19.974,-32.967,-7.3727
9185.9,33.096,19.974,-34.967,-7.3727
9195.8,32.096,18.974,-34.967,-8.3727
9205.7,31.096,18.974,-36.967,-9.3727
9215.5,31.096,18.974,-37.967,-8.3727
9225.4,26.096,15.974,-39.967,-9.3727
9235.3,26.096,15.974,-38.967,-8.3727
9245.2,22.096,12.974,-41.967,-10.373
9255.1,22.096,12.974,-43.967,-10.373
9265.0,18.096,11.974,-45.967,-10.373
9274.9,18.096,11.974,-44.967,-10.373
9284.7,19.096,11.974,-46.967,-10.373
9294.6,19.096,11.974,-48.967,-12.373
9304.5,13.096,10.974,-49.967,-12.373
9314.4,13.096,10.974,-51.967,-13.373
9324.3,10.096,7.9742,-52.967,-13.373
9334.2,10.096,7.9742,-52.967,-14.373
9344.1,7.096,6.9742,-54.967,-14.373
9353.9,7.096,6.9742,-57.967,-12.373
9363.8,3.096,5.9742,-57.967,-13.373
9373.7,3.096,5.9742,-58.967,-14.373
9383.6,3.096,5.9742,-60.967,-15.373
9393.5,3.096,5.9742,-61.967,-16.373
9403.4,2.096,5.9742,-63.967,-16.373
9413.3,-0.90404,5.9742,-64.967,-16.373
9423.1,0.09596,6.9742,-63.967,-14.373
9433.0,0.09596,7.9742,-63.967,-15.373
9442.9,4.096,8.9742,-66.967,-16.373
9452.8,8.096,10.974,-68.967,-16.373
9462.7,12.096,11.974,-66.967,-16.373
9472.6,15.096,12.974,-65.967,-16.373
9482.5,20.096,14.974,-65.967,-16.373
9492.3,22.096,17.974,-57.967,-15.373
9502.2,25.096,18.974,-57.967,-15.373
9512.1,25.096,16.974,-43.967,-12.373
9522.0,27.096,17.974,-43.967,-12.373
9531.9,31.096,18.974,-27.967,-9.3727
9541.8,34.096,18.974,-27.967,-9.3727
9551.7,34.096,18.974,-14.967,-6.3727
9561.5,36.096,20.974,-14.967,-6.3727
9571.4,36.096,19.974,-3.9668,-3.3727
9581.3,38.096,19.974,-3.9668,-3.3727
9591.2,39.096,20.974,7.0332,0.6273
9601.1,39.096,18.974,7.0332,0.6273
9611.0,38.096,19.974,11.033,1.6273
9620.9,41.096,22.974,11.033,1.6273
9630.7,42.096,21.974,15.033,3.6273
9640.6,40.096,20.974,15.033,3.6273
9650.5,41.096,20.974,16.033,3.6273
9660.4,42.096,21.974,16.033,3.6273
9670.3,41.096,22.974,15.033,3.6273
9680.2,41.096,22.974,15.033,3.6273
9690.1,41.096,21.974,14.033,4.6273
9699.9,43.096,21.974,10.033,4.6273
9709.8,44.096,23.974,10.033,4.6273
9719.7,45.096,24.974,11.033,4.6273
9729.6,43.096,23.974,9.0332,4.6273
9739.5,45.096,22.974,9.0332,4.6273
9749.4,46.096,24.974,10.033,4.6273
9759.3,45.096,24.974,11.033,5.6273
9769.1,45.096,23.974,11.033,5.6273
9779.0,47.096,24.974,8.0332,5.6273
9788.9,48.096,24.974,10.033,5.6273
9798.8,47.096,24.974,10.033,6.6273
9808.7,47.096,23.974,12.033,5.6273
9818.6,48.096,24.974,11.033,4.6273
9828.4,46.096,26.974,11.033,5.6273
9838.3,46.096,25.974,14.033,6.6273
9848.2,48.096,25.974,14.033,9.6273
9858.1,48.096,25.974,18.033,10.627
9868.0,48.096,26.974,17.033,10.627
9877.9,46.096,25.974,17.033,11.627
9887.8,46.096,25.974,17.033,10.627
9897.7,44.096,25.974,14.033,9.6273
9907.5,45.096,25.974,13.033,10.627
9917.4,42.096,25.974,12.033,9.6273
9927.3,41.096,24.974,13.033,9.6273
9937.2,41.096,23.974,14.033,9.6273
9947.1,42.096,23.974,13.033,9.6273
9957.0,39.096,22.974,13.033,11.627
9966.8,38.096,22.974,11.033,10.627
9976.7,39.096,22.974,8.0332,9.6273
9986.6,39.096,23.974,8.0332,10.627
9996.5,39.096,22.974,8.0332,9.6273
10006.0,37.096,22.974,4.0332,9.6273
10016.0,36.096,22.974,5.0332,8.6273
10026.0,34.096,21.974,5.0332,9.6273
10036.0,35.096,23.974,3.0332,8.6273
10046.0,33.096,21.974,1.0332,8.6273
10056.0,32.096,21.974,0.033217,7.6273
10066.0,31.096,20.974,-0.96678,7.6273
10076.0,29.096,18.974,-1.9668,7.6273
10086.0,29.096,18.974,-2.9668,7.6273
10095.0,26.096,19.974,-4.9668,7.6273
10105.0,26.096,19.974,-5.9668,6.6273
10115.0,26.096,18.974,-5.9668,6.6273
10125.0,26.096,18.974,-4.9668,6.6273
10135.0,26.096,17.974,-6.9668,5.6273
10145.0,26.096,17.974,-8.9668,5.6273
10155.0,23.096,18.974,-8.9668,4.6273
10165.0,23.096,18.974,-9.9668,4.6273
10174.0,22.096,17.974,-10.967,4.6273
10184.0,22.096,17.974,-14.967,5.6273
10194.0,17.096,18.974,-14.967,3.6273
10204.0,17.096,18.974,-14.967,3.6273
10214.0,16.096,17.974,-16.967,3.6273
10224.0,16.096,17.974,-17.967,3.6273
10234.0,13.096,16.974,-19.967,3.6273
10244.0,13.096,16.974,-21.967,3.6273
10254.0,14.096,15.974,-23.967,2.6273
10263.0,12.096,15.974,-24.967,2.6273
10273.0,11.096,14.974,-25.967,1.6273
10283.0,9.096,15.974,-24.967,2.6273
10293.0,12.096,15.974,-27.967,2.6273
10303.0,12.096,18.974,-26.967,2.6273
10313.0,11.096,17.974,-29.967,2.6273
10323.0,12.096,19.974,-29.967,2.6273
10333.0,13.096,20.974,-28.967,3.6273
10343.0,16.096,22.974,-29.967,2.6273
10352.0,19.096,23.974,-33.967,1.6273
10362.0,23.096,25.974,-33.967,1.6273
10372.0,26.096,28.974,-32.967,-0.3727
10382.0,32.096,29.974,-30.967,1.6273
10392.0,36.096,31.974,-27.967,1.6273
10402.0,38.096,31.974,-22.967,1.6273
10412.0,41.096,32.974,-14.967,2.6273
10422.0,43.096,33.974,-7.9668,4.6273
10432.0,44.096,33.974,-0.96678,6.6273
10441.0,49.096,35.974,7.0332,6.6273
10451.0,51.096,36.974,13.033,9.6273
10461.0,54.096,36.974,18.033,10.627
10471.0,57.096,38.974,22.033,10.627
10481.0,60.096,39.974,25.033,10.627
10491.0,60.096,40.974,29.033,13.627
10501.0,61.096,40.974,31.033,13.627
10511.0,62.096,39.974,35.033,15.627
10520.0,63.096,39.974,36.033,15.627
10530.0,64.096,40.974,39.033,16.627
10540.0,64.096,40.974,38.033,16.627
10550.0,63.096,41.974,38.033,16.627
10560.0,64.096,41.974,40.033,17.627
10570.0,64.096,42.974,40.033,17.627
10580.0,65.096,42.974,38.033,16.627
10590.0,65.096,41.974,38.033,16.627
10600.0,66.096,43.974,32.033,15.627
10609.0,67.096,44.974,32.033,15.627
10619.0,68.096,43.974,28.033,15.627
10629.0,67.096,44.974,28.033,15.627
10639.0,69.096,45.974,26.033,15.627
10649.0,70.096,44.974,26.033,15.627
10659.0,68.096,45.974,26.033,15.627
10669.0,69.096,43.974,26.033,15.627
10679.0,69.096,44.974,26.033,15.627
10689.0,68.096,43.974,26.033,15.627
10698.0,67.096,42.974,26.033,15.627
10708.0,68.096,42.974,26.033,15.627
10718.0,69.096,43.974,27.033,16.627
10728.0,66.096,43.974,27.033,16.627
10738.0,67.096,42.974,28.033,15.627
10748.0,66.096,43.974,28.033,15.627
10758.0,64.096,41.974,25.033,15.627
10768.0,63.096,42.974,25.033,15.627
10778.0,63.096,42.974,25.033,15.627
10787.0,62.096,42.974,23.033,14.627
10797.0,61.096,41.974,21.033,15.627
10807.0,59.096,39.974,20.033,15.627
10817.0,58.096,39.974,20.033,15.627
10827.0,59.096,40.974,19.033,13.627
10837.0,60.096,39.974,16.033,13.627
10847.0,58.096,39.974,15.033,13.627
10857.0,58.096,39.974,13.033,13.627
10866.0,57.096,38.974,11.033,13.627
10876.0,54.096,36.974,10.033,12.627
10886.0,53.096,37.974,12.033,12.627
10896.0,52.096,38.974,9.0332,12.627
10906.0,51.096,37.974,6.0332,11.627
10916.0,49.096,36.974,5.0332,11.627
10926.0,48.096,36.974,3.0332,9.6273
10936.0,48.096,36.974,-0.96678,9.6273
10946.0,44.096,35.974,0.033217,8.6273
10955.0,44.096,35.974,-1.9668,8.6273
10965.0,44.096,32.974,-3.9668,8.6273
10975.0,44.096,32.974,-4.9668,9.6273
10985.0,39.096,31.974,-5.9668,7.6273
10995.0,39.096,31.974,-6.9668,7.6273
11005.0,38.096,32.974,-9.9668,6.6273
11015.0,38.096,32.974,-9.9668,7.6273
11025.0,36.096,30.974,-11.967,7.6273
11035.0,36.096,30.974,-14.967,5.6273
11044.0,31.096,27.974,-15.967,3.6273
11054.0,31.096,27.974,-15.967,5.6273
11064.0,29.096,28.974,-18.967,4.6273
11074.0,29.096,28.974,-20.967,3.6273
11084.0,29.096,28.974,-20.967,2.6273
11094.0,29.096,28.974,-22.967,1.6273
11104.0,27.096,27.974,-24.967,3.6273
11114.0,24.096,27.974,-27.967,1.6273
11124.0,24.096,25.974,-28.967,1.6273
11133.0,22.096,24.974,-29.967,0.6273
11143.0,20.096,24.974,-28.967,0.6273
11153.0,18.096,22.974,-32.967,0.6273
11163.0,18.096,23.974,-31.967,-1.3727
11173.0,18.096,23.974,-33.967,-1.3727
11183.0,18.096,24.974,-35.967,-0.3727
11193.0,19.096,24.974,-37.967,-1.3727
11203.0,17.096,24.974,-42.967,-2.3727
11212.0,16.096,24.974,-41.967,-3.3727
11222.0,16.096,23.974,-43.967,-3.3727
11232.0,15.096,24.974,-44.967,-2.3727
11242.0,18.096,27.974,-46.967,-3.3727
11252.0,20.096,29.974,-45.967,-4.3727
11262.0,24.096,29.974,-46.967,-5.3727
11272.0,28.096,33.974,-45.967,-3.3727
11282.0,33.096,34.974,-46.967,-5.3727
11292.0,38.096,35.974,-42.967,-4.3727
11301.0,40.096,37.974,-37.967,-6.3727
11311.0,43.096,38.974,-30.967,-3.3727
11321.0,45.096,39.974,-19.967,-1.3727
11331.0,50.096,38.974,-12.967,0.6273
11341.0,52.096,39.974,-7.9668,1.6273
11351.0,53.096,41.974,0.033217,2.6273
11361.0,54.096,42.974,5.0332,5.6273
11371.0,56.096,42.974,11.033,6.6273
11381.0,61.096,43.974,14.033,7.6273
11390.0,61.096,43.974,17.033,8.6273
11400.0,63.096,45.974,20.033,8.6273
11410.0,62.096,43.974,24.033,8.6273
11420.0,62.096,44.974,26.033,9.6273
11430.0,65.096,46.974,33.033,11.627
11440.0,63.096,45.974,34.033,12.627
11450.0,64.096,45.974,33.033,11.627
11460.0,64.096,47.974,33.033,12.627
11470.0,67.096,46.974,34.033,14.627
11479.0,65.096,46.974,33.033,13.627
11489.0,64.096,47.974,32.033,13.627
11499.0,67.096,47.974,31.033,15.627
11509.0,67.096,47.974,26.033,12.627
11519.0,66.096,47.974,27.033,14.627
11529.0,68.096,48.974,26.033,14.627
11539.0,67.096,49.974,26.033,15.627
11549.0,68.096,47.974,27.033,16.627
11558.0,68.096,49.974,28.033,14.627
11568.0,69.096,50.974,26.033,14.627
11578.0,68.096,48.974,26.033,15.627
11588.0,67.096,47.974,28.033,14.627
11598.0,66.096,48.974,28.033,15.627
11608.0,69.096,49.974,26.033,14.627
11618.0,68.096,49.974,26.033,14.627
11628.0,68.096,50.974,25.033,14.627
11638.0,67.096,48.974,25.033,14.627
11647.0,68.096,49.974,28.033,14.627
11657.0,67.096,49.974,28.033,14.627
11667.0,66.096,47.974,26.033,15.627
11677.0,64.096,47.974,26.033,15.627
11687.0,63.096,47.974,27.033,14.627
11697.0,63.096,47.974,27.033,14.627
11707.0,62.096,47.974,24.033,14.627
11717.0,62.096,46.974,24.033,14.627
11727.0,61.096,47.974,23.033,13.627
11736.0,61.096,47.974,23.033,13.627
11746.0,60.096,45.974,20.033,13.627
11756.0,57.096,45.974,20.033,13.627
11766.0,57.096,44.974,17.033,13.627
11776.0,58.096,45.974,17.033,13.627
11786.0,57.096,46.974,17.033,13.627
11796.0,55.096,45.974,17.033,13.627
11806.0,55.096,45.974,14.033,12.627
11816.0,53.096,44.974,14.033,12.627
11825.0,53.096,44.974,12.033,11.627
11835.0,51.096,41.974,12.033,11.627
11845.0,51.096,41.974,8.0332,12.627
11855.0,50.096,40.974,8.0332,12.627
11865.0,50.096,40.974,9.0332,12.627
11875.0,48.096,42.974,10.033,10.627
11885.0,48.096,42.974,8.0332,11.627
11895.0,46.096,41.974,5.0332,9.6273
11904.0,46.096,41.974,4.0332,10.627
11914.0,45.096,41.974,3.0332,7.6273
11924.0,45.096,41.974,2.0332,9.6273
11934.0,42.096,39.974,-0.96678,7.6273
11944.0,42.096,39.974,-2.9668,6.6273
11954.0,38.096,39.974,-2.9668,6.6273
11964.0,38.096,39.974,-7.9668,6.6273
11974.0,39.096,39.974,-7.9668,5.6273
11984.0,41.096,39.974,-10.967,4.6273
11993.0,40.096,41.974,-8.9668,4.6273
12003.0,45.096,44.974,-9.9668,4.6273
12013.0,48.096,45.974,-12.967,5.6273
12023.0,49.096,45.974,-10.967,4.6273
12033.0,49.096,44.974,-9.9668,3.6273
12043.0,51.096,45.974,-9.9668,1.6273
12053.0,51.096,44.974,-10.967,2.6273
12063.0,52.096,46.974,-3.9668,4.6273
12073.0,51.096,46.974,-2.9668,3.6273
12082.0,52.096,45.974,0.033217,3.6273
12092.0,49.096,42.974,5.0332,4.6273
12102.0,49.096,43.974,5.0332,5.6273
12112.0,50.096,43.974,7.0332,4.6273
12122.0,49.096,41.974,9.0332,4.6273
12132.0,47.096,41.974,10.033,4.6273
12142.0,44.096,39.974,13.033,6.6273
12152.0,42.096,39.974,10.033,6.6273
12162.0,41.096,38.974,9.0332,4.6273
12171.0,41.096,38.974,5.0332,5.6273
12181.0,39.096,38.974,2.0332,4.6273
12191.0,39.096,38.974,-1.9668,4.6273
12201.0,40.096,37.974,-4.9668,2.6273
12211.0,39.096,37.974,-8.9668,0.6273
12221.0,35.096,36.974,-9.9668,0.6273
12231.0,38.096,37.974,-13.967,-0.3727
12241.0,37.096,37.974,-15.967,0.6273
12250.0,35.096,35.974,-17.967,-1.3727
12260.0,34.096,35.974,-18.967,-1.3727
12270.0,33.096,35.974,-21.967,-0.3727
12280.0,33.096,35.974,-23.967,-1.3727
12290.0,34.096,34.974,-25.967,-3.3727
12300.0,32.096,34.974,-27.967,-3.3727
12310.0,32.096,33.974,-26.967,-5.3727
12320.0,30.096,32.974,-28.967,-3.3727
12330.0,30.096,30.974,-30.967,-5.3727
12339.0,28.096,30.974,-29.967,-6.3727
12349.0,24.096,30.974,-31.967,-7.3727
12359.0,24.096,30.974,-31.967,-5.3727
12369.0,23.096,29.974,-33.967,-7.3727
12379.0,23.096,28.974,-34.967,-6.3727
12389.0,22.096,27.974,-35.967,-8.3727
12399.0,20.096,27.974,-33.967,-6.3727
12409.0,18.096,27.974,-37.967,-8.3727
12419.0,18.096,25.974,-37.967,-7.3727
12428.0,17.096,26.974,-40.967,-8.3727
12438.0,16.096,25.974,-43.967,-7.3727
12448.0,14.096,25.974,-43.967,-9.3727
12458.0,12.096,24.974,-44.967,-9.3727
12468.0,13.096,23.974,-46.967,-9.3727
12478.0,11.096,23.974,-48.967,-10.373
12488.0,9.096,21.974,-50.967,-10.373
12498.0,8.096,21.974,-53.967,-12.373
12508.0,5.096,19.974,-54.967,-11.373
12517.0,3.096,19.974,-54.967,-12.373
12527.0,2.096,18.974,-56.967,-12.373
12537.0,2.096,17.974,-57.967,-13.373
12547.0,1.096,18.974,-60.967,-12.373
12557.0,0.09596,18.974,-62.967,-15.373
12567.0,-1.904,17.974,-65.967,-13.373
12577.0,-3.904,16.974,-67.967,-15.373
12587.0,-6.904,15.974,-69.967,-16.373
12596.0,-8.904,12.974,-70.967,-17.373
12606.0,-8.904,13.974,-73.967,-14.373
12616.0,-10.904,13.974,-71.967,-15.373
12626.0,-12.904,12.974,-75.967,-17.373
12636.0,-14.904,11.974,-74.967,-17.373
12646.0,-16.904,9.9742,-79.967,-18.373
12656.0,-16.904,9.9742,-76.967,-18.373
12666.0,-18.904,8.9742,-79.967,-19.373
12676.0,-18.904,8.9742,-82.967,-19.373
12685.0,-21.904,8.9742,-82.967,-20.373
12695.0,-21.904,8.9742,-83.967,-19.373
12705.0,-24.904,5.9742,-83.967,-19.373
12715.0,-24.904,5.9742,-85.967,-19.373
12725.0,-28.904,4.9742,-85.967,-19.373
12735.0,-28.904,4.9742,-88.967,-21.373
12745.0,-30.904,2.9742,-88.967,-21.373
12755.0,-30.904,2.9742,-90.967,-22.373
12765.0,-34.904,1.9742,-90.967,-22.373
12774.0,-34.904,1.9742,-93.967,-23.373
12784.0,-36.904,0.97416,-93.967,-23.373
12794.0,-36.904,0.97416,-97.967,-22.373
12804.0,-40.904,-1.0258,-97.967,-22.373
12814.0,-40.904,-1.0258,-97.967,-23.373
12824.0,-40.904,-2.0258,-97.967,-23.373
12834.0,-44.904,-2.0258,-100.97,-23.373
12844.0,-47.904,-4.0258,-100.97,-23.373
12854.0,-49.904,-5.0258,-102.97,-24.373
12863.0,-48.904,-5.0258,-102.97,-24.373
12873.0,-52.904,-7.0258,-106.97,-25.373
12883.0,-56.904,-10.026,-106.97,-25.373
12893.0,-55.904,-7.0258,-111.97,-25.373
12903.0,-57.904,-8.0258,-111.97,-25.373
12913.0,-60.904,-10.026,-112.97,-26.373
12923.0,-61.904,-10.026,-112.97,-28.373
12933.0,-63.904,-12.026,-115.97,-28.373
12942.0,-66.904,-13.026,-118.97,-29.373
12952.0,-66.904,-14.026,-118.97,-29.373
12962.0,-67.904,-14.026,-119.97,-31.373
12972.0,-67.904,-12.026,-121.97,-29.373
12982.0,-66.904,-10.026,-122.97,-32.373
12992.0,-68.904,-11.026,-127.97,-31.373
13002.0,-68.904,-10.026,-125.97,-31.373
13012.0,-67.904,-10.026,-126.97,-30.373
13022.0,-66.904,-9.0258,-129.97,-33.373
13031.0,-61.904,-5.0258,-134.97,-33.373
13041.0,-57.904,-3.0258,-134.97,-35.373
13051.0,-53.904,-4.0258,-136.97,-35.373
13061.0,-49.904,-0.025835,-134.97,-34.373
13071.0,-44.904,-0.025835,-131.97,-35.373
13081.0,-41.904,0.97416,-126.97,-34.373
13091.0,-39.904,0.97416,-117.97,-33.373
13101.0,-36.904,1.9742,-106.97,-33.373
13111.0,-33.904,2.9742,-96.967,-30.373
13120.0,-29.904,3.9742,-86.967,-28.373
13130.0,-26.904,5.9742,-76.967,-26.373
13140.0,-24.904,5.9742,-68.967,-24.373
13150.0,-21.904,7.9742,-63.967,-22.373
13160.0,-19.904,7.9742,-56.967,-20.373
13170.0,-19.904,7.9742,-51.967,-20.373
13180.0,-18.904,8.9742,-50.967,-20.373
13190.0,-17.904,7.9742,-45.967,-19.373
13200.0,-17.904,6.9742,-44.967,-18.373
13209.0,-18.904,7.9742,-38.967,-17.373
13219.0,-14.904,7.9742,-36.967,-15.373
13229.0,-16.904,7.9742,-34.967,-14.373
13239.0,-14.904,7.9742,-33.967,-14.373
13249.0,-12.904,9.9742,-35.967,-15.373
13259.0,-12.904,8.9742,-35.967,-15.373
13269.0,-10.904,9.9742,-33.967,-15.373
13279.0,-11.904,9.9742,-35.967,-14.373
13288.0,-11.904,9.9742,-37.967,-13.373
13298.0,-9.904,9.9742,-36.967,-14.373
13308.0,-9.904,9.9742,-36.967,-15.373
13318.0,-8.904,8.9742,-38.967,-16.373
13328.0,-9.904,9.9742,-40.967,-14.373
13338.0,-10.904,9.9742,-37.967,-14.373
13348.0,-9.904,8.9742,-36.967,-15.373
13358.0,-10.904,8.9742,-39.967,-15.373
13368.0,-8.904,8.9742,-38.967,-15.373
13377.0,-12.904,8.9742,-39.967,-16.373
13387.0,-13.904,6.9742,-39.967,-15.373
13397.0,-14.904,6.9742,-40.967,-15.373
13407.0,-14.904,5.9742,-39.967,-15.373
13417.0,-16.904,3.9742,-36.967,-14.373
13427.0,-16.904,4.9742,-38.967,-14.373
13437.0,-18.904,4.9742,-35.967,-15.373
13447.0,-19.904,4.9742,-36.967,-15.373
13457.0,-17.904,4.9742,-36.967,-16.373
13466.0,-18.904,4.9742,-35.967,-14.373
13476.0,-18.904,4.9742,-35.967,-15.373
13486.0,-20.904,3.9742,-35.967,-13.373
13496.0,-21.904,2.9742,-36.967,-14.373
13506.0,-23.904,2.9742,-38.967,-14.373
13516.0,-22.904,2.9742,-35.967,-15.373
13526.0,-22.904,2.9742,-37.967,-13.373
13536.0,-24.904,1.9742,-40.967,-16.373
13546.0,-24.904,1.9742,-39.967,-14.373
13555.0,-26.904,0.97416,-41.967,-15.373
13565.0,-26.904,0.97416,-41.967,-14.373
13575.0,-29.904,-0.025835,-42.967,-15.373
13585.0,-29.904,-0.025835,-43.967,-15.373
13595.0,-31.904,-2.0258,-45.967,-17.373
13605.0,-31.904,-2.0258,-47.967,-16.373
13615.0,-36.904,-4.0258,-47.967,-17.373
13625.0,-36.904,-4.0258,-48.967,-16.373
13634.0,-34.904,-3.0258,-50.967,-16.373
13644.0,-34.904,-3.0258,-49.967,-16.373
13654.0,-37.904,-3.0258,-53.967,-17.373
13664.0,-37.904,-3.0258,-53.967,-19.373
13674.0,-40.904,-4.0258,-53.967,-19.373
13684.0,-40.904,-4.0258,-55.967,-18.373
13694.0,-43.904,-4.0258,-57.967,-18.373
13704.0,-42.904,-5.0258,-56.967,-19.373
13714.0,-44.904,-7.0258,-58.967,-19.373
13723.0,-45.904,-6.0258,-59.967,-20.373
13733.0,-45.904,-9.0258,-60.967,-18.373
13743.0,-47.904,-8.0258,-61.967,-21.373
13753.0,-46.904,-7.0258,-66.967,-20.373
13763.0,-48.904,-8.0258,-66.967,-21.373
13773.0,-49.904,-9.0258,-67.967,-22.373
13783.0,-50.904,-10.026,-67.967,-21.373
13793.0,-55.904,-11.026,-70.967,-23.373
13803.0,-56.904,-13.026,-72.967,-23.373
13812.0,-57.904,-12.026,-72.967,-23.373
13822.0,-58.904,-12.026,-71.967,-23.373
13832.0,-59.904,-14.026,-71.967,-23.373
13842.0,-62.904,-13.026,-75.967,-23.373
13852.0,-61.904,-15.026,-75.967,-23.373
13862.0,-61.904,-14.026,-78.967,-24.373
13872.0,-62.904,-12.026,-78.967,-24.373
13882.0,-62.904,-12.026,-83.967,-26.373
13892.0,-62.904,-11.026,-83.967,-26.373
13901.0,-57.904,-8.0258,-82.967,-26.373
13911.0,-56.904,-6.0258,-82.967,-26.373
13921.0,-50.904,-4.0258,-84.967,-26.373
13931.0,-45.904,-2.0258,-84.967,-26.373
13941.0,-41.904,0.97416,-84.967,-26.373
13951.0,-36.904,1.9742,-84.967,-26.373
13961.0,-33.904,2.9742,-79.967,-25.373
13971.0,-30.904,3.9742,-79.967,-25.373
13980.0,-28.904,3.9742,-70.967,-23.373
13990.0,-26.904,4.9742,-70.967,-23.373
14000.0,-24.904,4.9742,-56.967,-20.373
14010.0,-20.904,6.9742,-56.967,-20.373
14020.0,-22.904,6.9742,-51.967,-19.373
14030.0,-16.904,8.9742,-45.967,-17.373
14040.0,-12.904,9.9742,-37.967,-15.373
14050.0,-11.904,11.974,-37.967,-15.373
14060.0,-7.904,12.974,-28.967,-12.373
14069.0,-6.904,9.9742,-28.967,-12.373
14079.0,-6.904,9.9742,-23.967,-12.373
14089.0,-6.904,9.9742,-19.967,-10.373
14099.0,-3.904,13.974,-17.967,-11.373
14109.0,-6.904,11.974,-16.967,-10.373
14119.0,-2.904,12.974,-15.967,-9.3727
14129.0,-2.904,13.974,-12.967,-9.3727
14139.0,-2.904,12.974,-13.967,-8.3727
14149.0,0.09596,14.974,-14.967,-9.3727
14158.0,1.096,14.974,-16.967,-8.3727
14168.0,1.096,15.974,-17.967,-8.3727
14178.0,2.096,15.974,-22.967,-10.373
14188.0,2.096,14.974,-20.967,-9.3727
14198.0,4.096,14.974,-21.967,-8.3727
14208.0,5.096,16.974,-24.967,-11.373
14218.0,5.096,17.974,-24.967,-8.3727
14228.0,7.096,17.974,-26.967,-9.3727
14238.0,7.096,17.974,-26.967,-11.373
14247.0,9.096,19.974,-27.967,-11.373
14257.0,9.096,18.974,-28.967,-11.373
14267.0,9.096,16.974,-30.967,-11.373
14277.0,11.096,18.974,-28.967,-10.373
14287.0,8.096,16.974,-26.967,-11.373
14297.0,7.096,15.974,-27.967,-10.373
14307.0,8.096,18.974,-26.967,-10.373
14317.0,9.096,18.974,-27.967,-9.3727
14326.0,9.096,18.974,-25.967,-10.373
14336.0,8.096,18.974,-25.967,-11.373
14346.0,6.096,19.974,-26.967,-10.373
14356.0,7.096,17.974,-28.967,-11.373
14366.0,8.096,18.974,-27.967,-11.373
14376.0,8.096,18.974,-27.967,-11.373
14386.0,11.096,19.974,-26.967,-11.373
14396.0,11.096,19.974,-28.967,-10.373
14406.0,10.096,20.974,-27.967,-10.373
14415.0,10.096,20.974,-28.967,-11.373
14425.0,9.096,20.974,-28.967,-9.3727
14435.0,9.096,20.974,-26.967,-10.373
14445.0,7.096,20.974,-28.967,-9.3727
14455.0,7.096,20.974,-29.967,-11.373
14465.0,6.096,18.974,-28.967,-10.373
14475.0,6.096,18.974,-30.967,-10.373
14485.0,5.096,21.974,-30.967,-11.373
14495.0,5.096,21.974,-29.967,-9.3727
14504.0,5.096,20.974,-29.967,-9.3727
14514.0,5.096,20.974,-30.967,-9.3727
14524.0,3.096,19.974,-35.967,-10.373
14534.0,3.096,19.974,-35.967,-11.373
14544.0,2.096,19.974,-34.967,-11.373
14554.0,0.09596,19.974,-36.967,-11.373
14564.0,0.09596,19.974,-37.967,-12.373
14574.0,-1.904,18.974,-37.967,-10.373
14584.0,-1.904,19.974,-37.967,-11.373
14593.0,-1.904,19.974,-35.967,-11.373
14603.0,-3.904,18.974,-38.967,-11.373
14613.0,-2.904,19.974,-37.967,-10.373
14623.0,-4.904,18.974,-37.967,-10.373
14633.0,-5.904,17.974,-38.967,-10.373
14643.0,-5.904,17.974,-38.967,-11.373
14653.0,-7.904,18.974,-42.967,-12.373
14663.0,-6.904,17.974,-41.967,-12.373
14672.0,-10.904,16.974,-43.967,-13.373
14682.0,-9.904,16.974,-45.967,-14.373
14692.0,-11.904,16.974,-44.967,-11.373
14702.0,-10.904,18.974,-46.967,-11.373
14712.0,-9.904,17.974,-46.967,-11.373
14722.0,-8.904,20.974,-44.967,-11.373
14732.0,-8.904,20.974,-46.967,-12.373
14742.0,-5.904,20.974,-48.967,-12.373
14752.0,-5.904,22.974,-45.967,-12.373
14761.0,0.09596,24.974,-46.967,-12.373
14771.0,4.096,26.974,-48.967,-12.373
14781.0,7.096,30.974,-48.967,-12.373
14791.0,15.096,32.974,-45.967,-11.373
14801.0,17.096,32.974,-42.967,-12.373
14811.0,20.096,34.974,-35.967,-10.373
14821.0,26.096,35.974,-30.967,-9.3727
14831.0,28.096,36.974,-21.967,-8.3727
14841.0,33.096,36.974,-14.967,-7.3727
14850.0,33.096,38.974,-6.9668,-5.3727
14860.0,39.096,40.974,-1.9668,-4.3727
14870.0,41.096,41.974,5.0332,-1.3727
14880.0,45.096,43.974,9.0332,-1.3727
14890.0,47.096,44.974,16.033,0.6273
14900.0,50.096,45.974,19.033,1.6273
14910.0,51.096,43.974,25.033,4.6273
14920.0,51.096,44.974,25.033,4.6273
14930.0,53.096,44.974,35.033,6.6273
14939.0,54.096,44.974,35.033,6.6273
14949.0,58.096,47.974,39.033,7.6273
14959.0,59.096,47.974,39.033,7.6273
14969.0,59.096,48.974,43.033,10.627
14979.0,60.096,48.974,43.033,10.627
14989.0,62.096,48.974,44.033,11.627
14999.0,63.096,49.974,44.033,11.627
15009.0,64.096,51.974,40.033,11.627
15018.0,66.096,51.974,40.033,11.627
15028.0,67.096,51.974,38.033,10.627
15038.0,67.096,52.974,38.033,10.627
15048.0,69.096,53.974,39.033,11.627
15058.0,71.096,54.974,39.033,11.627
15068.0,71.096,54.974,37.033,12.627
15078.0,71.096,54.974,37.033,12.627
15088.0,71.096,54.974,40.033,13.627
15098.0,72.096,53.974,40.033,13.627
15107.0,74.096,56.974,40.033,11.627
15117.0,73.096,54.974,40.033,11.627
15127.0,74.096,55.974,39.033,12.627
15137.0,74.096,53.974,38.033,11.627
15147.0,71.096,54.974,39.033,11.627
15157.0,72.096,54.974,41.033,12.627
15167.0,72.096,54.974,42.033,12.627
15177.0,72.096,55.974,44.033,13.627
15187.0,72.096,54.974,44.033,14.627
15196.0,73.096,55.974,45.033,13.627
15206.0,74.096,54.974,47.033,14.627
15216.0,72.096,55.974,46.033,14.627
15226.0,72.096,55.974,46.033,14.627
15236.0,71.096,54.974,44.033,15.627
15246.0,71.096,54.974,46.033,14.627
15256.0,72.096,55.974,43.033,14.627
15266.0,72.096,55.974,43.033,14.627
15275.0,70.096,54.974,42.033,13.627
15285.0,70.096,54.974,43.033,14.627
15295.0,70.096,52.974,43.033,14.627
15305.0,70.096,52.974,38.033,12.627
15315.0,69.096,52.974,38.033,13.627
15325.0,69.096,52.974,37.033,13.627
15335.0,66.096,51.974,35.033,12.627
15345.0,66.096,51.974,38.033,14.627
15355.0,64.096,51.974,36.033,13.627
15364.0,64.096,51.974,34.033,12.627
15374.0,63.096,51.974,34.033,13.627
15384.0,63.096,51.974,31.033,12.627
15394.0,61.096,49.974,31.033,10.627
15404.0,61.096,49.974,28.033,10.627
15414.0,60.096,48.974,26.033,10.627
15424.0,60.096,49.974,27.033,10.627
15434.0,58.096,48.974,26.033,10.627
15444.0,56.096,47.974,23.033,8.6273
15453.0,54.096,46.974,23.033,8.6273
15463.0,54.096,47.974,22.033,9.6273
15473.0,53.096,46.974,21.033,8.6273
15483.0,52.096,46.974,20.033,8.6273
15493.0,52.096,45.974,20.033,8.6273
15503.0,51.096,45.974,18.033,8.6273
15513.0,48.096,44.974,16.033,7.6273
15523.0,47.096,44.974,16.033,7.6273
15533.0,45.096,42.974,15.033,7.6273
15542.0,46.096,44.974,15.033,6.6273
15552.0,46.096,44.974,14.033,7.6273
15562.0,47.096,47.974,11.033,6.6273
15572.0,48.096,47.974,10.033,6.6273
15582.0,48.096,47.974,8.0332,5.6273
15592.0,49.096,47.974,6.0332,5.6273
15602.0,52.096,48.974,5.0332,4.6273
15612.0,53.096,50.974,2.0332,3.6273
15621.0,56.096,52.974,2.0332,2.6273
15631.0,62.096,54.974,2.0332,1.6273
15641.0,66.096,55.974,3.0332,2.6273
15651.0,72.096,56.974,7.0332,2.6273
15661.0,75.096,57.974,12.033,4.6273
15671.0,79.096,58.974,20.033,5.6273
15681.0,83.096,60.974,27.033,5.6273
15691.0,86.096,61.974,35.033,9.6273
15701.0,92.096,65.974,40.033,8.6273
15710.0,96.096,65.974,47.033,12.627
15720.0,98.096,66.974,54.033,13.627
15730.0,104.1,69.974,59.033,14.627
15740.0,105.1,69.974,62.033,15.627
15750.0,109.1,71.974,70.033,15.627
15760.0,112.1,71.974,72.033,17.627
15770.0,113.1,72.974,75.033,19.627
15780.0,115.1,72.974,81.033,21.627
15790.0,116.1,72.974,87.033,22.627
15799.0,120.1,74.974,89.033,24.627
15809.0,122.1,74.974,92.033,26.627
15819.0,122.1,74.974,95.033,24.627
15829.0,123.1,74.974,97.033,27.627
15839.0,121.1,74.974,97.033,27.627
15849.0,123.1,73.974,96.033,27.627
15859.0,124.1,75.974,96.033,27.627
15869.0,125.1,75.974,96.033,27.627
15879.0,127.1,76.974,96.033,27.627
15888.0,128.1,74.974,93.033,29.627
15898.0,128.1,76.974,93.033,27.627
15908.0,130.1,75.974,94.033,26.627
15918.0,128.1,77.974,93.033,28.627
15928.0,129.1,77.974,93.033,27.627
15938.0,132.1,77.974,95.033,27.627
15948.0,134.1,78.974,94.033,26.627
15958.0,133.1,78.974,92.033,26.627
15967.0,131.1,78.974,92.033,26.627
15977.0,133.1,77.974,93.033,25.627
15987.0,134.1,78.974,93.033,27.627
15997.0,135.1,77.974,93.033,27.627
16007.0,135.1,76.974,93.033,27.627
16017.0,135.1,77.974,94.033,27.627
16027.0,134.1,76.974,94.033,27.627
16037.0,133.1,77.974,94.033,28.627
16047.0,133.1,77.974,94.033,28.627
16056.0,131.1,76.974,92.033,27.627
16066.0,129.1,75.974,92.033,27.627
16076.0,130.1,75.974,92.033,27.627
16086.0,127.1,75.974,92.033,27.627
16096.0,127.1,75.974,87.033,24.627
16106.0,126.1,72.974,87.033,24.627
16116.0,126.1,72.974,84.033,25.627
16126.0,125.1,72.974,84.033,25.627
16136.0,125.1,72.974,82.033,24.627
16145.0,121.1,71.974,82.033,24.627
16155.0,121.1,71.974,80.033,23.627
16165.0,118.1,68.974,80.033,23.627
16175.0,118.1,68.974,79.033,22.627
16185.0,116.1,67.974,79.033,22.627
16195.0,116.1,67.974,71.033,18.627
16205.0,115.1,66.974,71.033,18.627
16215.0,115.1,66.974,70.033,18.627
16225.0,112.1,64.974,68.033,19.627
16234.0,112.1,64.974,66.033,18.627
16244.0,107.1,64.974,65.033,18.627
16254.0,107.1,64.974,65.033,18.627
16264.0,106.1,62.974,63.033,17.627
16274.0,104.1,60.974,60.033,15.627
16284.0,102.1,61.974,59.033,13.627
16294.0,101.1,60.974,57.033,14.627
16304.0,98.096,58.974,56.033,14.627
16313.0,97.096,58.974,55.033,13.627
16323.0,94.096,54.974,50.033,12.627
16333.0,93.096,56.974,51.033,14.627
16343.0,91.096,55.974,49.033,14.627
16353.0,91.096,55.974,48.033,12.627
16363.0,90.096,52.974,46.033,10.627
16373.0,87.096,51.974,43.033,9.6273
16383.0,84.096,50.974,41.033,9.6273
16393.0,80.096,49.974,38.033,9.6273
16402.0,79.096,48.974,37.033,8.6273
16412.0,75.096,45.974,35.033,8.6273
16422.0,73.096,46.974,35.033,7.6273
16432.0,70.096,45.974,32.033,6.6273
16442.0,70.096,46.974,30.033,7.6273
16452.0,72.096,47.974,27.033,5.6273
16462.0,72.096,